Created as New Dataset,Sample 071 By Student Date Tuesday, February 27 2024
cm-1,%T
8000.00,0.12
7999.00,0.12
7998.00,0.10
7997.00,0.06
7996.00,0.04
7995.00,0.04
7994.00,0.03
7993.00,0.03
7992.00,0.04
7991.00,0.05
7990.00,0.07
7989.00,0.10
7988.00,0.11
7987.00,0.09
7986.00,0.08
7985.00,0.07
7984.00,0.05
7983.00,0.04
7982.00,0.03
7981.00,0.02
7980.00,0.05
7979.00,0.07
7978.00,0.08
7977.00,0.07
7976.00,0.06
7975.00,0.06
7974.00,0.08
7973.00,0.09
7972.00,0.06
7971.00,0.04
7970.00,0.04
7969.00,0.06
7968.00,0.07
7967.00,0.07
7966.00,0.04
7965.00,0.02
7964.00,0.02
7963.00,0.02
7962.00,0.03
7961.00,0.02
7960.00,0.02
7959.00,0.03
7958.00,0.05
7957.00,0.06
7956.00,0.06
7955.00,0.06
7954.00,0.05
7953.00,0.04
7952.00,0.04
7951.00,0.03
7950.00,0.02
7949.00,0.02
7948.00,0.03
7947.00,0.03
7946.00,0.05
7945.00,0.07
7944.00,0.08
7943.00,0.08
7942.00,0.09
7941.00,0.11
7940.00,0.14
7939.00,0.15
7938.00,0.13
7937.00,0.10
7936.00,0.08
7935.00,0.09
7934.00,0.09
7933.00,0.06
7932.00,0.04
7931.00,0.03
7930.00,0.02
7929.00,0.03
7928.00,0.05
7927.00,0.06
7926.00,0.07
7925.00,0.07
7924.00,0.03
7923.00,0.02
7922.00,0.05
7921.00,0.04
7920.00,0.02
7919.00,0.03
7918.00,0.05
7917.00,0.06
7916.00,0.09
7915.00,0.09
7914.00,0.08
7913.00,0.08
7912.00,0.07
7911.00,0.04
7910.00,0.02
7909.00,0.02
7908.00,0.04
7907.00,0.05
7906.00,0.05
7905.00,0.05
7904.00,0.06
7903.00,0.07
7902.00,0.07
7901.00,0.06
7900.00,0.05
7899.00,0.05
7898.00,0.06
7897.00,0.07
7896.00,0.05
7895.00,0.04
7894.00,0.07
7893.00,0.09
7892.00,0.10
7891.00,0.07
7890.00,0.03
7889.00,0.04
7888.00,0.06
7887.00,0.06
7886.00,0.04
7885.00,0.01
7884.00,0.01
7883.00,0.03
7882.00,0.05
7881.00,0.04
7880.00,0.03
7879.00,0.04
7878.00,0.08
7877.00,0.10
7876.00,0.10
7875.00,0.09
7874.00,0.08
7873.00,0.09
7872.00,0.09
7871.00,0.07
7870.00,0.05
7869.00,0.04
7868.00,0.04
7867.00,0.04
7866.00,0.04
7865.00,0.05
7864.00,0.06
7863.00,0.06
7862.00,0.04
7861.00,0.02
7860.00,0.03
7859.00,0.04
7858.00,0.04
7857.00,0.03
7856.00,0.01
7855.00,0.01
7854.00,0.01
7853.00,0.02
7852.00,0.03
7851.00,0.04
7850.00,0.03
7849.00,0.02
7848.00,0.03
7847.00,0.04
7846.00,0.05
7845.00,0.05
7844.00,0.04
7843.00,0.05
7842.00,0.06
7841.00,0.07
7840.00,0.04
7839.00,0.03
7838.00,0.04
7837.00,0.03
7836.00,0.03
7835.00,0.03
7834.00,0.03
7833.00,0.04
7832.00,0.05
7831.00,0.06
7830.00,0.06
7829.00,0.06
7828.00,0.05
7827.00,0.03
7826.00,0.04
7825.00,0.05
7824.00,0.06
7823.00,0.06
7822.00,0.05
7821.00,0.04
7820.00,0.04
7819.00,0.05
7818.00,0.05
7817.00,0.03
7816.00,0.02
7815.00,0.01
7814.00,0.02
7813.00,0.03
7812.00,0.04
7811.00,0.03
7810.00,0.03
7809.00,0.03
7808.00,0.03
7807.00,0.03
7806.00,0.03
7805.00,0.03
7804.00,0.03
7803.00,0.03
7802.00,0.04
7801.00,0.06
7800.00,0.08
7799.00,0.08
7798.00,0.07
7797.00,0.05
7796.00,0.03
7795.00,0.05
7794.00,0.05
7793.00,0.02
7792.00,0.01
7791.00,0.01
7790.00,0.01
7789.00,0.02
7788.00,0.03
7787.00,0.01
7786.00,0.01
7785.00,0.02
7784.00,0.03
7783.00,0.03
7782.00,0.04
7781.00,0.05
7780.00,0.05
7779.00,0.05
7778.00,0.05
7777.00,0.05
7776.00,0.03
7775.00,0.02
7774.00,0.01
7773.00,0.01
7772.00,0.01
7771.00,0.01
7770.00,0.01
7769.00,0.02
7768.00,0.03
7767.00,0.04
7766.00,0.04
7765.00,0.04
7764.00,0.03
7763.00,0.02
7762.00,0.04
7761.00,0.05
7760.00,0.04
7759.00,0.03
7758.00,0.04
7757.00,0.06
7756.00,0.08
7755.00,0.09
7754.00,0.07
7753.00,0.05
7752.00,0.04
7751.00,0.05
7750.00,0.05
7749.00,0.04
7748.00,0.02
7747.00,0.01
7746.00,0.02
7745.00,0.03
7744.00,0.05
7743.00,0.05
7742.00,0.05
7741.00,0.04
7740.00,0.03
7739.00,0.02
7738.00,0.02
7737.00,0.03
7736.00,0.03
7735.00,0.02
7734.00,0.01
7733.00,0.02
7732.00,0.03
7731.00,0.03
7730.00,0.02
7729.00,0.02
7728.00,0.02
7727.00,0.02
7726.00,0.03
7725.00,0.05
7724.00,0.05
7723.00,0.05
7722.00,0.05
7721.00,0.05
7720.00,0.05
7719.00,0.05
7718.00,0.04
7717.00,0.02
7716.00,0.02
7715.00,0.04
7714.00,0.05
7713.00,0.04
7712.00,0.03
7711.00,0.02
7710.00,0.02
7709.00,0.03
7708.00,0.03
7707.00,0.04
7706.00,0.04
7705.00,0.03
7704.00,0.02
7703.00,0.03
7702.00,0.04
7701.00,0.04
7700.00,0.03
7699.00,0.02
7698.00,0.03
7697.00,0.04
7696.00,0.04
7695.00,0.03
7694.00,0.02
7693.00,0.02
7692.00,0.02
7691.00,0.02
7690.00,0.02
7689.00,0.03
7688.00,0.03
7687.00,0.03
7686.00,0.03
7685.00,0.03
7684.00,0.03
7683.00,0.03
7682.00,0.03
7681.00,0.03
7680.00,0.04
7679.00,0.04
7678.00,0.04
7677.00,0.04
7676.00,0.03
7675.00,0.03
7674.00,0.03
7673.00,0.03
7672.00,0.02
7671.00,0.02
7670.00,0.02
7669.00,0.01
7668.00,0.01
7667.00,0.01
7666.00,0.02
7665.00,0.03
7664.00,0.04
7663.00,0.03
7662.00,0.02
7661.00,0.03
7660.00,0.05
7659.00,0.05
7658.00,0.04
7657.00,0.04
7656.00,0.03
7655.00,0.04
7654.00,0.05
7653.00,0.04
7652.00,0.05
7651.00,0.06
7650.00,0.07
7649.00,0.08
7648.00,0.09
7647.00,0.08
7646.00,0.06
7645.00,0.06
7644.00,0.07
7643.00,0.06
7642.00,0.04
7641.00,0.02
7640.00,0.04
7639.00,0.06
7638.00,0.07
7637.00,0.04
7636.00,0.02
7635.00,0.02
7634.00,0.03
7633.00,0.04
7632.00,0.03
7631.00,0.03
7630.00,0.03
7629.00,0.04
7628.00,0.05
7627.00,0.05
7626.00,0.04
7625.00,0.03
7624.00,0.02
7623.00,0.02
7622.00,0.02
7621.00,0.02
7620.00,0.02
7619.00,0.02
7618.00,0.03
7617.00,0.04
7616.00,0.05
7615.00,0.05
7614.00,0.05
7613.00,0.04
7612.00,0.03
7611.00,0.02
7610.00,0.02
7609.00,0.02
7608.00,0.01
7607.00,0.01
7606.00,0.01
7605.00,0.02
7604.00,0.03
7603.00,0.04
7602.00,0.04
7601.00,0.03
7600.00,0.03
7599.00,0.04
7598.00,0.04
7597.00,0.04
7596.00,0.04
7595.00,0.04
7594.00,0.03
7593.00,0.02
7592.00,0.02
7591.00,0.02
7590.00,0.02
7589.00,0.02
7588.00,0.02
7587.00,0.03
7586.00,0.05
7585.00,0.05
7584.00,0.05
7583.00,0.04
7582.00,0.03
7581.00,0.03
7580.00,0.03
7579.00,0.02
7578.00,0.02
7577.00,0.01
7576.00,0.01
7575.00,0.02
7574.00,0.03
7573.00,0.04
7572.00,0.04
7571.00,0.04
7570.00,0.03
7569.00,0.03
7568.00,0.03
7567.00,0.03
7566.00,0.02
7565.00,0.01
7564.00,0.00
7563.00,0.01
7562.00,0.02
7561.00,0.02
7560.00,0.02
7559.00,0.02
7558.00,0.02
7557.00,0.02
7556.00,0.02
7555.00,0.02
7554.00,0.03
7553.00,0.03
7552.00,0.03
7551.00,0.03
7550.00,0.02
7549.00,0.02
7548.00,0.03
7547.00,0.03
7546.00,0.02
7545.00,0.02
7544.00,0.01
7543.00,0.02
7542.00,0.02
7541.00,0.02
7540.00,0.02
7539.00,0.02
7538.00,0.02
7537.00,0.02
7536.00,0.02
7535.00,0.03
7534.00,0.03
7533.00,0.04
7532.00,0.04
7531.00,0.05
7530.00,0.05
7529.00,0.04
7528.00,0.03
7527.00,0.03
7526.00,0.04
7525.00,0.04
7524.00,0.03
7523.00,0.02
7522.00,0.01
7521.00,0.02
7520.00,0.03
7519.00,0.02
7518.00,0.01
7517.00,0.00
7516.00,-0.00
7515.00,0.01
7514.00,0.01
7513.00,0.02
7512.00,0.01
7511.00,0.01
7510.00,0.02
7509.00,0.02
7508.00,0.02
7507.00,0.02
7506.00,0.02
7505.00,0.03
7504.00,0.03
7503.00,0.03
7502.00,0.03
7501.00,0.03
7500.00,0.03
7499.00,0.03
7498.00,0.03
7497.00,0.02
7496.00,0.01
7495.00,0.00
7494.00,0.01
7493.00,0.01
7492.00,0.01
7491.00,0.01
7490.00,0.01
7489.00,0.02
7488.00,0.02
7487.00,0.02
7486.00,0.02
7485.00,0.01
7484.00,0.01
7483.00,0.02
7482.00,0.02
7481.00,0.02
7480.00,0.02
7479.00,0.02
7478.00,0.03
7477.00,0.03
7476.00,0.03
7475.00,0.02
7474.00,0.01
7473.00,0.01
7472.00,0.01
7471.00,0.01
7470.00,0.01
7469.00,0.01
7468.00,0.01
7467.00,0.01
7466.00,0.01
7465.00,0.02
7464.00,0.01
7463.00,0.01
7462.00,0.02
7461.00,0.02
7460.00,0.03
7459.00,0.03
7458.00,0.03
7457.00,0.03
7456.00,0.03
7455.00,0.02
7454.00,0.01
7453.00,0.01
7452.00,0.02
7451.00,0.02
7450.00,0.02
7449.00,0.02
7448.00,0.03
7447.00,0.03
7446.00,0.02
7445.00,0.01
7444.00,0.02
7443.00,0.03
7442.00,0.03
7441.00,0.02
7440.00,0.01
7439.00,0.01
7438.00,0.02
7437.00,0.01
7436.00,0.01
7435.00,0.01
7434.00,0.02
7433.00,0.02
7432.00,0.01
7431.00,0.01
7430.00,0.03
7429.00,0.03
7428.00,0.02
7427.00,0.02
7426.00,0.02
7425.00,0.03
7424.00,0.03
7423.00,0.02
7422.00,0.01
7421.00,0.01
7420.00,0.01
7419.00,0.01
7418.00,0.01
7417.00,0.01
7416.00,0.01
7415.00,0.01
7414.00,0.01
7413.00,0.01
7412.00,0.02
7411.00,0.02
7410.00,0.02
7409.00,0.02
7408.00,0.03
7407.00,0.03
7406.00,0.04
7405.00,0.03
7404.00,0.04
7403.00,0.05
7402.00,0.05
7401.00,0.04
7400.00,0.03
7399.00,0.03
7398.00,0.03
7397.00,0.02
7396.00,0.01
7395.00,0.01
7394.00,0.01
7393.00,0.02
7392.00,0.02
7391.00,0.01
7390.00,0.01
7389.00,0.01
7388.00,0.01
7387.00,0.01
7386.00,0.01
7385.00,0.01
7384.00,0.02
7383.00,0.02
7382.00,0.01
7381.00,0.01
7380.00,0.01
7379.00,0.01
7378.00,0.01
7377.00,0.02
7376.00,0.02
7375.00,0.03
7374.00,0.03
7373.00,0.02
7372.00,0.02
7371.00,0.02
7370.00,0.02
7369.00,0.01
7368.00,0.01
7367.00,0.01
7366.00,0.01
7365.00,0.01
7364.00,0.02
7363.00,0.03
7362.00,0.03
7361.00,0.03
7360.00,0.02
7359.00,0.02
7358.00,0.03
7357.00,0.04
7356.00,0.05
7355.00,0.05
7354.00,0.04
7353.00,0.03
7352.00,0.03
7351.00,0.03
7350.00,0.03
7349.00,0.03
7348.00,0.02
7347.00,0.02
7346.00,0.02
7345.00,0.02
7344.00,0.01
7343.00,0.01
7342.00,0.00
7341.00,0.00
7340.00,0.01
7339.00,0.01
7338.00,0.01
7337.00,0.01
7336.00,0.01
7335.00,0.01
7334.00,0.02
7333.00,0.02
7332.00,0.02
7331.00,0.02
7330.00,0.02
7329.00,0.02
7328.00,0.02
7327.00,0.03
7326.00,0.02
7325.00,0.02
7324.00,0.02
7323.00,0.02
7322.00,0.02
7321.00,0.02
7320.00,0.01
7319.00,0.00
7318.00,0.00
7317.00,0.01
7316.00,0.02
7315.00,0.01
7314.00,0.01
7313.00,0.01
7312.00,0.01
7311.00,0.01
7310.00,0.01
7309.00,0.00
7308.00,0.00
7307.00,0.01
7306.00,0.01
7305.00,0.01
7304.00,0.01
7303.00,0.01
7302.00,0.01
7301.00,0.02
7300.00,0.02
7299.00,0.02
7298.00,0.01
7297.00,0.01
7296.00,0.01
7295.00,0.02
7294.00,0.03
7293.00,0.04
7292.00,0.04
7291.00,0.03
7290.00,0.03
7289.00,0.02
7288.00,0.02
7287.00,0.02
7286.00,0.02
7285.00,0.02
7284.00,0.02
7283.00,0.01
7282.00,0.01
7281.00,0.02
7280.00,0.02
7279.00,0.01
7278.00,0.01
7277.00,0.02
7276.00,0.03
7275.00,0.04
7274.00,0.03
7273.00,0.03
7272.00,0.03
7271.00,0.02
7270.00,0.01
7269.00,0.01
7268.00,0.01
7267.00,0.01
7266.00,0.03
7265.00,0.03
7264.00,0.03
7263.00,0.03
7262.00,0.03
7261.00,0.03
7260.00,0.03
7259.00,0.01
7258.00,0.01
7257.00,0.01
7256.00,0.02
7255.00,0.03
7254.00,0.03
7253.00,0.04
7252.00,0.04
7251.00,0.03
7250.00,0.02
7249.00,0.01
7248.00,0.01
7247.00,0.01
7246.00,0.01
7245.00,0.00
7244.00,0.01
7243.00,0.02
7242.00,0.02
7241.00,0.02
7240.00,0.01
7239.00,0.01
7238.00,0.01
7237.00,0.01
7236.00,0.01
7235.00,0.01
7234.00,0.02
7233.00,0.02
7232.00,0.03
7231.00,0.03
7230.00,0.02
7229.00,0.02
7228.00,0.02
7227.00,0.02
7226.00,0.02
7225.00,0.02
7224.00,0.02
7223.00,0.02
7222.00,0.02
7221.00,0.03
7220.00,0.02
7219.00,0.02
7218.00,0.02
7217.00,0.02
7216.00,0.02
7215.00,0.01
7214.00,0.01
7213.00,0.01
7212.00,0.02
7211.00,0.03
7210.00,0.03
7209.00,0.02
7208.00,0.01
7207.00,0.01
7206.00,0.01
7205.00,0.01
7204.00,0.01
7203.00,0.01
7202.00,0.01
7201.00,0.02
7200.00,0.02
7199.00,0.01
7198.00,0.01
7197.00,0.02
7196.00,0.01
7195.00,0.01
7194.00,0.01
7193.00,0.01
7192.00,0.01
7191.00,0.01
7190.00,0.01
7189.00,0.01
7188.00,0.01
7187.00,0.01
7186.00,0.01
7185.00,0.01
7184.00,0.01
7183.00,0.01
7182.00,0.01
7181.00,0.01
7180.00,0.01
7179.00,0.01
7178.00,0.01
7177.00,0.01
7176.00,0.01
7175.00,0.01
7174.00,0.01
7173.00,0.01
7172.00,0.01
7171.00,0.01
7170.00,0.01
7169.00,0.01
7168.00,0.01
7167.00,0.01
7166.00,0.01
7165.00,0.01
7164.00,0.02
7163.00,0.02
7162.00,0.03
7161.00,0.02
7160.00,0.01
7159.00,0.01
7158.00,0.01
7157.00,0.01
7156.00,0.00
7155.00,0.01
7154.00,0.02
7153.00,0.02
7152.00,0.02
7151.00,0.02
7150.00,0.02
7149.00,0.01
7148.00,0.01
7147.00,0.01
7146.00,0.01
7145.00,0.01
7144.00,0.01
7143.00,0.01
7142.00,0.01
7141.00,0.01
7140.00,0.01
7139.00,0.01
7138.00,0.01
7137.00,0.02
7136.00,0.02
7135.00,0.02
7134.00,0.02
7133.00,0.01
7132.00,0.02
7131.00,0.02
7130.00,0.01
7129.00,0.00
7128.00,0.01
7127.00,0.02
7126.00,0.02
7125.00,0.02
7124.00,0.02
7123.00,0.02
7122.00,0.02
7121.00,0.01
7120.00,0.01
7119.00,0.01
7118.00,0.01
7117.00,0.01
7116.00,0.00
7115.00,0.01
7114.00,0.02
7113.00,0.02
7112.00,0.02
7111.00,0.01
7110.00,0.01
7109.00,0.02
7108.00,0.01
7107.00,0.01
7106.00,0.02
7105.00,0.02
7104.00,0.02
7103.00,0.01
7102.00,0.01
7101.00,0.01
7100.00,0.00
7099.00,0.00
7098.00,0.00
7097.00,0.01
7096.00,0.02
7095.00,0.04
7094.00,0.04
7093.00,0.04
7092.00,0.03
7091.00,0.02
7090.00,0.02
7089.00,0.02
7088.00,0.02
7087.00,0.02
7086.00,0.02
7085.00,0.02
7084.00,0.02
7083.00,0.03
7082.00,0.02
7081.00,0.02
7080.00,0.01
7079.00,0.01
7078.00,0.01
7077.00,0.01
7076.00,0.01
7075.00,0.01
7074.00,0.00
7073.00,0.00
7072.00,0.00
7071.00,0.00
7070.00,0.01
7069.00,0.01
7068.00,0.01
7067.00,0.02
7066.00,0.02
7065.00,0.02
7064.00,0.01
7063.00,0.01
7062.00,0.02
7061.00,0.02
7060.00,0.01
7059.00,0.02
7058.00,0.03
7057.00,0.03
7056.00,0.02
7055.00,0.02
7054.00,0.03
7053.00,0.03
7052.00,0.01
7051.00,0.00
7050.00,0.00
7049.00,0.02
7048.00,0.02
7047.00,0.01
7046.00,0.00
7045.00,0.01
7044.00,0.02
7043.00,0.03
7042.00,0.02
7041.00,0.02
7040.00,0.01
7039.00,0.02
7038.00,0.03
7037.00,0.03
7036.00,0.02
7035.00,0.02
7034.00,0.03
7033.00,0.03
7032.00,0.03
7031.00,0.03
7030.00,0.03
7029.00,0.02
7028.00,0.02
7027.00,0.02
7026.00,0.01
7025.00,0.01
7024.00,0.01
7023.00,0.01
7022.00,0.02
7021.00,0.02
7020.00,0.02
7019.00,0.02
7018.00,0.02
7017.00,0.02
7016.00,0.02
7015.00,0.02
7014.00,0.02
7013.00,0.02
7012.00,0.02
7011.00,0.02
7010.00,0.02
7009.00,0.01
7008.00,0.01
7007.00,0.01
7006.00,0.01
7005.00,0.01
7004.00,0.01
7003.00,0.02
7002.00,0.02
7001.00,0.02
7000.00,0.02
6999.00,0.02
6998.00,0.01
6997.00,0.01
6996.00,0.01
6995.00,0.01
6994.00,0.01
6993.00,0.00
6992.00,0.00
6991.00,0.00
6990.00,0.01
6989.00,0.01
6988.00,0.01
6987.00,0.02
6986.00,0.02
6985.00,0.02
6984.00,0.01
6983.00,0.02
6982.00,0.02
6981.00,0.02
6980.00,0.01
6979.00,0.01
6978.00,0.01
6977.00,0.02
6976.00,0.02
6975.00,0.01
6974.00,0.01
6973.00,0.01
6972.00,0.01
6971.00,0.01
6970.00,0.01
6969.00,0.01
6968.00,0.01
6967.00,0.01
6966.00,0.01
6965.00,0.02
6964.00,0.01
6963.00,0.01
6962.00,0.01
6961.00,0.01
6960.00,0.01
6959.00,0.02
6958.00,0.03
6957.00,0.03
6956.00,0.03
6955.00,0.02
6954.00,0.02
6953.00,0.02
6952.00,0.02
6951.00,0.02
6950.00,0.01
6949.00,0.02
6948.00,0.03
6947.00,0.03
6946.00,0.01
6945.00,0.00
6944.00,0.01
6943.00,0.01
6942.00,0.01
6941.00,0.01
6940.00,0.02
6939.00,0.02
6938.00,0.02
6937.00,0.02
6936.00,0.01
6935.00,0.01
6934.00,0.01
6933.00,0.01
6932.00,0.01
6931.00,0.01
6930.00,0.01
6929.00,0.01
6928.00,0.02
6927.00,0.01
6926.00,0.01
6925.00,0.01
6924.00,0.02
6923.00,0.02
6922.00,0.01
6921.00,0.01
6920.00,0.01
6919.00,0.02
6918.00,0.01
6917.00,0.01
6916.00,0.01
6915.00,0.02
6914.00,0.02
6913.00,0.02
6912.00,0.01
6911.00,0.01
6910.00,0.01
6909.00,0.01
6908.00,0.02
6907.00,0.02
6906.00,0.01
6905.00,0.01
6904.00,0.02
6903.00,0.02
6902.00,0.02
6901.00,0.01
6900.00,0.01
6899.00,0.01
6898.00,0.01
6897.00,0.01
6896.00,0.01
6895.00,0.01
6894.00,0.02
6893.00,0.02
6892.00,0.03
6891.00,0.03
6890.00,0.04
6889.00,0.04
6888.00,0.03
6887.00,0.03
6886.00,0.02
6885.00,0.01
6884.00,0.01
6883.00,0.01
6882.00,0.01
6881.00,0.01
6880.00,0.01
6879.00,0.01
6878.00,0.01
6877.00,0.01
6876.00,0.01
6875.00,0.01
6874.00,0.02
6873.00,0.02
6872.00,0.02
6871.00,0.01
6870.00,0.02
6869.00,0.02
6868.00,0.02
6867.00,0.02
6866.00,0.01
6865.00,0.01
6864.00,0.02
6863.00,0.02
6862.00,0.01
6861.00,0.01
6860.00,0.02
6859.00,0.03
6858.00,0.03
6857.00,0.02
6856.00,0.01
6855.00,0.01
6854.00,0.01
6853.00,0.01
6852.00,0.01
6851.00,0.01
6850.00,0.01
6849.00,0.01
6848.00,0.01
6847.00,0.01
6846.00,0.01
6845.00,0.01
6844.00,0.01
6843.00,0.01
6842.00,0.01
6841.00,0.01
6840.00,0.01
6839.00,0.01
6838.00,0.01
6837.00,0.00
6836.00,0.01
6835.00,0.01
6834.00,0.02
6833.00,0.02
6832.00,0.02
6831.00,0.02
6830.00,0.02
6829.00,0.02
6828.00,0.02
6827.00,0.02
6826.00,0.01
6825.00,0.01
6824.00,0.01
6823.00,0.01
6822.00,0.01
6821.00,0.00
6820.00,0.01
6819.00,0.01
6818.00,0.01
6817.00,0.01
6816.00,0.01
6815.00,0.01
6814.00,0.02
6813.00,0.01
6812.00,0.01
6811.00,0.01
6810.00,0.01
6809.00,0.01
6808.00,0.01
6807.00,0.01
6806.00,0.01
6805.00,0.01
6804.00,0.01
6803.00,0.02
6802.00,0.02
6801.00,0.02
6800.00,0.01
6799.00,0.01
6798.00,0.02
6797.00,0.01
6796.00,0.01
6795.00,0.00
6794.00,0.00
6793.00,0.00
6792.00,0.00
6791.00,0.01
6790.00,0.00
6789.00,0.00
6788.00,0.00
6787.00,0.01
6786.00,0.01
6785.00,0.01
6784.00,0.01
6783.00,0.01
6782.00,0.00
6781.00,0.01
6780.00,0.01
6779.00,0.01
6778.00,0.01
6777.00,0.01
6776.00,0.01
6775.00,0.01
6774.00,0.01
6773.00,0.01
6772.00,0.01
6771.00,0.01
6770.00,0.02
6769.00,0.02
6768.00,0.01
6767.00,0.02
6766.00,0.02
6765.00,0.02
6764.00,0.01
6763.00,0.01
6762.00,0.01
6761.00,0.01
6760.00,0.01
6759.00,0.00
6758.00,0.00
6757.00,0.01
6756.00,0.01
6755.00,0.01
6754.00,0.01
6753.00,0.01
6752.00,0.02
6751.00,0.02
6750.00,0.02
6749.00,0.02
6748.00,0.02
6747.00,0.02
6746.00,0.02
6745.00,0.02
6744.00,0.02
6743.00,0.02
6742.00,0.01
6741.00,0.01
6740.00,0.01
6739.00,0.02
6738.00,0.02
6737.00,0.02
6736.00,0.02
6735.00,0.02
6734.00,0.02
6733.00,0.01
6732.00,0.01
6731.00,0.01
6730.00,0.01
6729.00,0.02
6728.00,0.01
6727.00,0.01
6726.00,0.01
6725.00,0.01
6724.00,0.01
6723.00,0.01
6722.00,0.00
6721.00,0.00
6720.00,0.01
6719.00,0.01
6718.00,0.01
6717.00,0.01
6716.00,0.02
6715.00,0.02
6714.00,0.03
6713.00,0.02
6712.00,0.02
6711.00,0.02
6710.00,0.02
6709.00,0.01
6708.00,0.01
6707.00,0.01
6706.00,0.01
6705.00,0.01
6704.00,0.01
6703.00,0.01
6702.00,0.02
6701.00,0.02
6700.00,0.01
6699.00,0.01
6698.00,0.01
6697.00,0.01
6696.00,0.01
6695.00,0.01
6694.00,0.01
6693.00,0.01
6692.00,0.01
6691.00,0.01
6690.00,0.01
6689.00,0.01
6688.00,0.01
6687.00,0.00
6686.00,0.00
6685.00,0.00
6684.00,0.00
6683.00,0.01
6682.00,0.01
6681.00,0.01
6680.00,0.01
6679.00,0.01
6678.00,0.01
6677.00,0.01
6676.00,0.01
6675.00,0.01
6674.00,0.01
6673.00,0.01
6672.00,0.01
6671.00,0.01
6670.00,0.00
6669.00,0.00
6668.00,0.00
6667.00,0.01
6666.00,0.01
6665.00,0.01
6664.00,0.01
6663.00,0.01
6662.00,0.01
6661.00,0.01
6660.00,0.02
6659.00,0.02
6658.00,0.02
6657.00,0.02
6656.00,0.01
6655.00,0.01
6654.00,0.01
6653.00,0.01
6652.00,0.00
6651.00,0.00
6650.00,0.01
6649.00,0.02
6648.00,0.01
6647.00,0.01
6646.00,0.01
6645.00,0.02
6644.00,0.02
6643.00,0.02
6642.00,0.02
6641.00,0.02
6640.00,0.01
6639.00,0.02
6638.00,0.02
6637.00,0.02
6636.00,0.02
6635.00,0.02
6634.00,0.01
6633.00,0.01
6632.00,0.01
6631.00,0.01
6630.00,0.01
6629.00,0.01
6628.00,0.01
6627.00,0.02
6626.00,0.02
6625.00,0.02
6624.00,0.02
6623.00,0.02
6622.00,0.02
6621.00,0.02
6620.00,0.01
6619.00,0.01
6618.00,0.01
6617.00,0.00
6616.00,0.00
6615.00,0.00
6614.00,0.00
6613.00,0.01
6612.00,0.01
6611.00,0.01
6610.00,0.01
6609.00,0.01
6608.00,0.02
6607.00,0.02
6606.00,0.02
6605.00,0.02
6604.00,0.02
6603.00,0.01
6602.00,0.01
6601.00,0.01
6600.00,0.01
6599.00,0.02
6598.00,0.02
6597.00,0.02
6596.00,0.01
6595.00,0.01
6594.00,0.01
6593.00,0.01
6592.00,0.00
6591.00,0.00
6590.00,0.00
6589.00,0.01
6588.00,0.01
6587.00,0.01
6586.00,0.01
6585.00,0.01
6584.00,0.01
6583.00,0.01
6582.00,0.01
6581.00,0.01
6580.00,0.01
6579.00,0.01
6578.00,0.01
6577.00,0.01
6576.00,0.00
6575.00,0.00
6574.00,0.01
6573.00,0.01
6572.00,0.01
6571.00,0.01
6570.00,0.02
6569.00,0.02
6568.00,0.01
6567.00,0.01
6566.00,0.01
6565.00,0.01
6564.00,0.02
6563.00,0.02
6562.00,0.02
6561.00,0.02
6560.00,0.02
6559.00,0.01
6558.00,0.01
6557.00,0.01
6556.00,0.01
6555.00,0.01
6554.00,0.01
6553.00,0.01
6552.00,0.01
6551.00,0.01
6550.00,0.01
6549.00,0.01
6548.00,0.01
6547.00,0.01
6546.00,0.01
6545.00,0.01
6544.00,0.01
6543.00,0.01
6542.00,0.02
6541.00,0.02
6540.00,0.02
6539.00,0.02
6538.00,0.02
6537.00,0.02
6536.00,0.01
6535.00,0.01
6534.00,0.01
6533.00,0.00
6532.00,0.00
6531.00,0.00
6530.00,0.01
6529.00,0.00
6528.00,0.00
6527.00,0.00
6526.00,0.01
6525.00,0.01
6524.00,0.01
6523.00,0.01
6522.00,0.01
6521.00,0.01
6520.00,0.01
6519.00,0.01
6518.00,0.01
6517.00,0.01
6516.00,0.01
6515.00,0.01
6514.00,0.01
6513.00,0.01
6512.00,0.01
6511.00,0.01
6510.00,0.01
6509.00,0.01
6508.00,0.00
6507.00,0.00
6506.00,0.01
6505.00,0.01
6504.00,0.02
6503.00,0.02
6502.00,0.01
6501.00,0.01
6500.00,0.01
6499.00,0.01
6498.00,0.01
6497.00,0.00
6496.00,0.00
6495.00,0.01
6494.00,0.01
6493.00,0.00
6492.00,0.00
6491.00,0.01
6490.00,0.01
6489.00,0.01
6488.00,0.01
6487.00,0.01
6486.00,0.00
6485.00,0.00
6484.00,0.01
6483.00,0.01
6482.00,0.01
6481.00,0.01
6480.00,0.01
6479.00,0.01
6478.00,0.01
6477.00,0.00
6476.00,0.00
6475.00,0.00
6474.00,0.01
6473.00,0.01
6472.00,0.02
6471.00,0.01
6470.00,0.02
6469.00,0.03
6468.00,0.03
6467.00,0.02
6466.00,0.02
6465.00,0.01
6464.00,0.01
6463.00,0.01
6462.00,0.01
6461.00,0.01
6460.00,0.01
6459.00,0.02
6458.00,0.02
6457.00,0.01
6456.00,0.01
6455.00,0.00
6454.00,0.00
6453.00,0.01
6452.00,0.01
6451.00,0.01
6450.00,0.01
6449.00,0.01
6448.00,0.01
6447.00,0.01
6446.00,0.01
6445.00,0.01
6444.00,0.01
6443.00,0.01
6442.00,0.01
6441.00,0.01
6440.00,0.01
6439.00,0.00
6438.00,0.01
6437.00,0.01
6436.00,0.01
6435.00,0.01
6434.00,0.01
6433.00,0.01
6432.00,0.02
6431.00,0.01
6430.00,0.01
6429.00,0.01
6428.00,0.01
6427.00,0.01
6426.00,0.01
6425.00,0.01
6424.00,0.00
6423.00,0.00
6422.00,0.01
6421.00,0.01
6420.00,0.01
6419.00,0.01
6418.00,0.01
6417.00,0.01
6416.00,0.00
6415.00,0.00
6414.00,0.00
6413.00,0.00
6412.00,0.01
6411.00,0.01
6410.00,0.01
6409.00,0.01
6408.00,0.01
6407.00,0.01
6406.00,0.01
6405.00,0.01
6404.00,0.01
6403.00,0.01
6402.00,0.02
6401.00,0.02
6400.00,0.01
6399.00,0.01
6398.00,0.01
6397.00,0.01
6396.00,0.00
6395.00,0.01
6394.00,0.01
6393.00,0.01
6392.00,0.02
6391.00,0.02
6390.00,0.01
6389.00,0.01
6388.00,0.01
6387.00,0.00
6386.00,0.00
6385.00,0.00
6384.00,0.01
6383.00,0.01
6382.00,0.01
6381.00,0.01
6380.00,0.01
6379.00,0.01
6378.00,0.01
6377.00,0.01
6376.00,0.02
6375.00,0.02
6374.00,0.01
6373.00,0.01
6372.00,0.00
6371.00,0.01
6370.00,0.01
6369.00,0.01
6368.00,0.00
6367.00,0.01
6366.00,0.01
6365.00,0.01
6364.00,0.01
6363.00,0.01
6362.00,0.01
6361.00,0.01
6360.00,0.01
6359.00,0.00
6358.00,0.00
6357.00,0.00
6356.00,0.01
6355.00,0.01
6354.00,0.01
6353.00,0.01
6352.00,0.01
6351.00,0.01
6350.00,0.01
6349.00,0.01
6348.00,0.01
6347.00,0.01
6346.00,0.01
6345.00,0.01
6344.00,0.01
6343.00,0.01
6342.00,0.00
6341.00,0.00
6340.00,0.01
6339.00,0.01
6338.00,0.01
6337.00,0.01
6336.00,0.01
6335.00,0.01
6334.00,0.01
6333.00,0.01
6332.00,0.00
6331.00,0.00
6330.00,0.00
6329.00,0.01
6328.00,0.01
6327.00,0.01
6326.00,0.01
6325.00,0.01
6324.00,0.01
6323.00,0.02
6322.00,0.01
6321.00,0.01
6320.00,0.01
6319.00,0.01
6318.00,0.01
6317.00,0.01
6316.00,0.01
6315.00,0.01
6314.00,0.01
6313.00,0.01
6312.00,0.01
6311.00,0.01
6310.00,0.01
6309.00,0.01
6308.00,0.01
6307.00,0.01
6306.00,0.01
6305.00,0.01
6304.00,0.00
6303.00,0.00
6302.00,0.00
6301.00,0.01
6300.00,0.01
6299.00,0.01
6298.00,0.00
6297.00,0.01
6296.00,0.01
6295.00,0.01
6294.00,0.00
6293.00,0.00
6292.00,0.01
6291.00,0.01
6290.00,0.01
6289.00,0.01
6288.00,0.01
6287.00,0.01
6286.00,0.01
6285.00,0.01
6284.00,0.01
6283.00,0.01
6282.00,0.01
6281.00,0.01
6280.00,0.00
6279.00,0.01
6278.00,0.01
6277.00,0.01
6276.00,0.01
6275.00,0.01
6274.00,0.01
6273.00,0.01
6272.00,0.01
6271.00,0.01
6270.00,0.01
6269.00,0.01
6268.00,0.01
6267.00,0.01
6266.00,0.01
6265.00,0.01
6264.00,0.00
6263.00,0.00
6262.00,0.00
6261.00,0.00
6260.00,0.00
6259.00,0.00
6258.00,0.00
6257.00,0.00
6256.00,0.01
6255.00,0.00
6254.00,0.00
6253.00,0.01
6252.00,0.01
6251.00,0.00
6250.00,0.00
6249.00,0.01
6248.00,0.01
6247.00,0.01
6246.00,0.01
6245.00,0.01
6244.00,0.02
6243.00,0.01
6242.00,0.01
6241.00,0.01
6240.00,0.01
6239.00,0.01
6238.00,0.00
6237.00,0.00
6236.00,0.01
6235.00,0.01
6234.00,0.01
6233.00,0.01
6232.00,0.01
6231.00,0.01
6230.00,0.01
6229.00,0.01
6228.00,0.01
6227.00,0.01
6226.00,0.01
6225.00,0.01
6224.00,0.01
6223.00,0.01
6222.00,0.01
6221.00,0.00
6220.00,0.00
6219.00,0.01
6218.00,0.01
6217.00,0.01
6216.00,0.01
6215.00,0.01
6214.00,0.01
6213.00,0.01
6212.00,0.01
6211.00,0.00
6210.00,0.00
6209.00,0.00
6208.00,0.00
6207.00,0.01
6206.00,0.01
6205.00,0.01
6204.00,0.01
6203.00,0.00
6202.00,0.00
6201.00,0.00
6200.00,0.01
6199.00,0.01
6198.00,0.01
6197.00,0.01
6196.00,0.01
6195.00,0.01
6194.00,0.01
6193.00,0.01
6192.00,0.01
6191.00,0.00
6190.00,0.00
6189.00,0.00
6188.00,0.00
6187.00,0.00
6186.00,0.00
6185.00,0.00
6184.00,0.00
6183.00,0.01
6182.00,0.02
6181.00,0.02
6180.00,0.02
6179.00,0.01
6178.00,0.01
6177.00,0.01
6176.00,0.01
6175.00,0.00
6174.00,0.00
6173.00,0.01
6172.00,0.01
6171.00,0.00
6170.00,0.00
6169.00,0.01
6168.00,0.01
6167.00,0.01
6166.00,0.01
6165.00,0.01
6164.00,0.01
6163.00,0.01
6162.00,0.01
6161.00,0.01
6160.00,0.01
6159.00,0.01
6158.00,0.01
6157.00,0.00
6156.00,0.00
6155.00,0.01
6154.00,0.01
6153.00,0.01
6152.00,0.01
6151.00,0.01
6150.00,0.01
6149.00,0.01
6148.00,0.01
6147.00,0.01
6146.00,0.01
6145.00,0.01
6144.00,0.01
6143.00,0.01
6142.00,0.00
6141.00,0.00
6140.00,0.00
6139.00,0.01
6138.00,0.01
6137.00,0.01
6136.00,0.01
6135.00,0.01
6134.00,0.01
6133.00,0.01
6132.00,0.01
6131.00,0.01
6130.00,0.01
6129.00,0.01
6128.00,0.00
6127.00,0.00
6126.00,0.01
6125.00,0.00
6124.00,0.00
6123.00,0.00
6122.00,0.01
6121.00,0.01
6120.00,0.01
6119.00,0.01
6118.00,0.01
6117.00,0.00
6116.00,0.00
6115.00,0.00
6114.00,0.00
6113.00,0.00
6112.00,0.00
6111.00,0.01
6110.00,0.01
6109.00,0.01
6108.00,0.01
6107.00,0.01
6106.00,0.01
6105.00,0.01
6104.00,0.01
6103.00,0.01
6102.00,0.01
6101.00,0.01
6100.00,0.01
6099.00,0.01
6098.00,0.01
6097.00,0.01
6096.00,0.01
6095.00,0.01
6094.00,0.01
6093.00,0.00
6092.00,0.00
6091.00,0.00
6090.00,0.00
6089.00,0.00
6088.00,0.01
6087.00,0.01
6086.00,0.01
6085.00,0.01
6084.00,0.00
6083.00,0.00
6082.00,0.00
6081.00,0.01
6080.00,0.01
6079.00,0.01
6078.00,0.01
6077.00,0.01
6076.00,0.02
6075.00,0.01
6074.00,0.01
6073.00,0.01
6072.00,0.01
6071.00,0.01
6070.00,0.01
6069.00,0.00
6068.00,0.01
6067.00,0.01
6066.00,0.01
6065.00,0.00
6064.00,0.00
6063.00,0.01
6062.00,0.01
6061.00,0.01
6060.00,0.00
6059.00,0.01
6058.00,0.01
6057.00,0.00
6056.00,0.00
6055.00,0.00
6054.00,0.00
6053.00,0.00
6052.00,0.00
6051.00,0.00
6050.00,0.00
6049.00,0.00
6048.00,0.00
6047.00,0.00
6046.00,0.00
6045.00,0.00
6044.00,0.01
6043.00,0.01
6042.00,0.01
6041.00,0.01
6040.00,0.02
6039.00,0.01
6038.00,0.01
6037.00,0.01
6036.00,0.00
6035.00,0.00
6034.00,0.01
6033.00,0.01
6032.00,0.01
6031.00,0.01
6030.00,0.01
6029.00,0.01
6028.00,0.01
6027.00,0.01
6026.00,0.01
6025.00,0.01
6024.00,0.01
6023.00,0.01
6022.00,0.01
6021.00,0.01
6020.00,0.01
6019.00,0.01
6018.00,0.01
6017.00,0.01
6016.00,0.01
6015.00,0.01
6014.00,0.00
6013.00,0.00
6012.00,0.00
6011.00,0.00
6010.00,0.00
6009.00,0.00
6008.00,0.00
6007.00,0.00
6006.00,0.01
6005.00,0.01
6004.00,0.01
6003.00,0.01
6002.00,0.01
6001.00,0.01
6000.00,0.00
5999.00,0.00
5998.00,0.00
5997.00,0.01
5996.00,0.01
5995.00,0.00
5994.00,0.01
5993.00,0.01
5992.00,0.01
5991.00,0.01
5990.00,0.01
5989.00,0.01
5988.00,0.01
5987.00,0.01
5986.00,0.01
5985.00,0.01
5984.00,0.01
5983.00,0.01
5982.00,0.01
5981.00,0.01
5980.00,0.00
5979.00,0.00
5978.00,0.00
5977.00,0.01
5976.00,0.01
5975.00,0.01
5974.00,0.01
5973.00,0.01
5972.00,0.01
5971.00,0.01
5970.00,0.00
5969.00,0.00
5968.00,0.00
5967.00,0.00
5966.00,0.00
5965.00,0.00
5964.00,0.01
5963.00,0.01
5962.00,0.01
5961.00,0.01
5960.00,0.01
5959.00,0.01
5958.00,0.01
5957.00,0.01
5956.00,0.00
5955.00,0.00
5954.00,0.00
5953.00,0.00
5952.00,0.01
5951.00,0.01
5950.00,0.01
5949.00,0.01
5948.00,0.01
5947.00,0.01
5946.00,0.01
5945.00,0.01
5944.00,0.00
5943.00,0.00
5942.00,0.00
5941.00,0.01
5940.00,0.01
5939.00,0.01
5938.00,0.01
5937.00,0.00
5936.00,0.01
5935.00,0.01
5934.00,0.00
5933.00,0.00
5932.00,0.00
5931.00,0.00
5930.00,0.00
5929.00,0.00
5928.00,0.00
5927.00,0.01
5926.00,0.01
5925.00,0.01
5924.00,0.01
5923.00,0.00
5922.00,0.00
5921.00,0.01
5920.00,0.01
5919.00,0.00
5918.00,0.00
5917.00,0.01
5916.00,0.01
5915.00,0.01
5914.00,0.01
5913.00,0.01
5912.00,0.02
5911.00,0.02
5910.00,0.01
5909.00,0.01
5908.00,0.01
5907.00,0.01
5906.00,0.01
5905.00,0.01
5904.00,0.00
5903.00,0.00
5902.00,0.01
5901.00,0.01
5900.00,0.01
5899.00,0.01
5898.00,0.01
5897.00,0.01
5896.00,0.01
5895.00,0.01
5894.00,0.01
5893.00,0.00
5892.00,0.01
5891.00,0.01
5890.00,0.01
5889.00,0.01
5888.00,0.01
5887.00,0.01
5886.00,0.01
5885.00,0.01
5884.00,0.02
5883.00,0.02
5882.00,0.02
5881.00,0.01
5880.00,0.01
5879.00,0.01
5878.00,0.00
5877.00,-0.00
5876.00,0.00
5875.00,0.00
5874.00,0.00
5873.00,0.00
5872.00,0.00
5871.00,0.00
5870.00,0.00
5869.00,0.01
5868.00,0.01
5867.00,0.00
5866.00,0.00
5865.00,0.00
5864.00,0.00
5863.00,0.00
5862.00,0.00
5861.00,0.00
5860.00,0.00
5859.00,0.00
5858.00,0.00
5857.00,0.00
5856.00,0.00
5855.00,0.00
5854.00,0.01
5853.00,0.01
5852.00,0.01
5851.00,0.00
5850.00,0.00
5849.00,0.00
5848.00,0.00
5847.00,0.00
5846.00,0.01
5845.00,0.01
5844.00,0.01
5843.00,0.01
5842.00,0.01
5841.00,0.01
5840.00,0.01
5839.00,0.01
5838.00,0.01
5837.00,0.01
5836.00,0.01
5835.00,0.01
5834.00,0.01
5833.00,0.01
5832.00,0.01
5831.00,0.01
5830.00,0.02
5829.00,0.02
5828.00,0.01
5827.00,0.01
5826.00,0.01
5825.00,0.01
5824.00,0.01
5823.00,0.02
5822.00,0.02
5821.00,0.02
5820.00,0.02
5819.00,0.02
5818.00,0.01
5817.00,0.01
5816.00,0.01
5815.00,0.01
5814.00,0.02
5813.00,0.02
5812.00,0.03
5811.00,0.03
5810.00,0.02
5809.00,0.02
5808.00,0.02
5807.00,0.02
5806.00,0.02
5805.00,0.02
5804.00,0.02
5803.00,0.02
5802.00,0.02
5801.00,0.02
5800.00,0.02
5799.00,0.02
5798.00,0.02
5797.00,0.02
5796.00,0.01
5795.00,0.01
5794.00,0.01
5793.00,0.01
5792.00,0.01
5791.00,0.02
5790.00,0.02
5789.00,0.02
5788.00,0.02
5787.00,0.02
5786.00,0.02
5785.00,0.02
5784.00,0.02
5783.00,0.02
5782.00,0.02
5781.00,0.02
5780.00,0.02
5779.00,0.02
5778.00,0.02
5777.00,0.02
5776.00,0.02
5775.00,0.02
5774.00,0.02
5773.00,0.02
5772.00,0.02
5771.00,0.02
5770.00,0.02
5769.00,0.02
5768.00,0.02
5767.00,0.02
5766.00,0.02
5765.00,0.02
5764.00,0.02
5763.00,0.03
5762.00,0.03
5761.00,0.02
5760.00,0.02
5759.00,0.02
5758.00,0.02
5757.00,0.02
5756.00,0.02
5755.00,0.02
5754.00,0.02
5753.00,0.02
5752.00,0.02
5751.00,0.02
5750.00,0.02
5749.00,0.02
5748.00,0.02
5747.00,0.02
5746.00,0.02
5745.00,0.02
5744.00,0.02
5743.00,0.02
5742.00,0.02
5741.00,0.02
5740.00,0.02
5739.00,0.02
5738.00,0.02
5737.00,0.02
5736.00,0.02
5735.00,0.02
5734.00,0.02
5733.00,0.02
5732.00,0.02
5731.00,0.02
5730.00,0.02
5729.00,0.02
5728.00,0.02
5727.00,0.02
5726.00,0.02
5725.00,0.02
5724.00,0.01
5723.00,0.01
5722.00,0.01
5721.00,0.01
5720.00,0.01
5719.00,0.01
5718.00,0.02
5717.00,0.02
5716.00,0.02
5715.00,0.02
5714.00,0.02
5713.00,0.02
5712.00,0.02
5711.00,0.02
5710.00,0.02
5709.00,0.01
5708.00,0.02
5707.00,0.02
5706.00,0.02
5705.00,0.02
5704.00,0.02
5703.00,0.02
5702.00,0.02
5701.00,0.02
5700.00,0.02
5699.00,0.02
5698.00,0.02
5697.00,0.02
5696.00,0.02
5695.00,0.02
5694.00,0.01
5693.00,0.01
5692.00,0.01
5691.00,0.01
5690.00,0.01
5689.00,0.01
5688.00,0.01
5687.00,0.01
5686.00,0.02
5685.00,0.02
5684.00,0.02
5683.00,0.02
5682.00,0.01
5681.00,0.01
5680.00,0.01
5679.00,0.01
5678.00,0.01
5677.00,0.01
5676.00,0.01
5675.00,0.01
5674.00,0.01
5673.00,0.01
5672.00,0.01
5671.00,0.01
5670.00,0.01
5669.00,0.01
5668.00,0.01
5667.00,0.01
5666.00,0.01
5665.00,0.01
5664.00,0.01
5663.00,0.01
5662.00,0.01
5661.00,0.01
5660.00,0.01
5659.00,0.01
5658.00,0.01
5657.00,0.01
5656.00,0.01
5655.00,0.01
5654.00,0.01
5653.00,0.01
5652.00,0.01
5651.00,0.01
5650.00,0.01
5649.00,0.01
5648.00,0.01
5647.00,0.01
5646.00,0.01
5645.00,0.01
5644.00,0.01
5643.00,0.01
5642.00,0.01
5641.00,0.01
5640.00,0.01
5639.00,0.01
5638.00,0.01
5637.00,0.01
5636.00,0.01
5635.00,0.02
5634.00,0.02
5633.00,0.02
5632.00,0.02
5631.00,0.01
5630.00,0.01
5629.00,0.01
5628.00,0.01
5627.00,0.01
5626.00,0.01
5625.00,0.01
5624.00,0.01
5623.00,0.00
5622.00,0.00
5621.00,0.01
5620.00,0.01
5619.00,0.01
5618.00,0.01
5617.00,0.01
5616.00,0.01
5615.00,0.01
5614.00,0.01
5613.00,0.01
5612.00,0.01
5611.00,0.01
5610.00,0.01
5609.00,0.01
5608.00,0.01
5607.00,0.01
5606.00,0.01
5605.00,0.01
5604.00,0.01
5603.00,0.01
5602.00,0.01
5601.00,0.01
5600.00,0.01
5599.00,0.00
5598.00,0.00
5597.00,0.00
5596.00,0.00
5595.00,0.01
5594.00,0.01
5593.00,0.01
5592.00,0.01
5591.00,0.01
5590.00,0.01
5589.00,0.01
5588.00,0.01
5587.00,0.01
5586.00,0.01
5585.00,0.01
5584.00,0.01
5583.00,0.01
5582.00,0.01
5581.00,0.01
5580.00,0.01
5579.00,0.01
5578.00,0.01
5577.00,0.01
5576.00,0.00
5575.00,0.00
5574.00,0.00
5573.00,0.00
5572.00,0.00
5571.00,0.01
5570.00,0.01
5569.00,0.01
5568.00,0.01
5567.00,0.01
5566.00,0.01
5565.00,0.01
5564.00,0.00
5563.00,0.00
5562.00,0.00
5561.00,0.01
5560.00,0.01
5559.00,0.01
5558.00,0.01
5557.00,0.01
5556.00,0.01
5555.00,0.01
5554.00,0.01
5553.00,0.01
5552.00,0.01
5551.00,0.01
5550.00,0.01
5549.00,0.01
5548.00,0.01
5547.00,0.01
5546.00,0.01
5545.00,0.01
5544.00,0.01
5543.00,0.01
5542.00,0.00
5541.00,0.00
5540.00,0.00
5539.00,0.01
5538.00,0.01
5537.00,0.01
5536.00,0.01
5535.00,0.01
5534.00,0.01
5533.00,0.01
5532.00,0.01
5531.00,0.01
5530.00,0.01
5529.00,0.01
5528.00,0.01
5527.00,0.01
5526.00,0.01
5525.00,0.01
5524.00,0.01
5523.00,0.01
5522.00,0.00
5521.00,0.00
5520.00,0.00
5519.00,0.00
5518.00,0.00
5517.00,0.00
5516.00,0.00
5515.00,0.00
5514.00,0.00
5513.00,0.01
5512.00,0.01
5511.00,0.01
5510.00,0.01
5509.00,0.01
5508.00,0.01
5507.00,0.00
5506.00,0.01
5505.00,0.01
5504.00,0.01
5503.00,0.01
5502.00,0.01
5501.00,0.01
5500.00,0.01
5499.00,0.01
5498.00,0.01
5497.00,0.01
5496.00,0.01
5495.00,0.01
5494.00,0.01
5493.00,0.01
5492.00,0.01
5491.00,0.01
5490.00,0.01
5489.00,0.01
5488.00,0.01
5487.00,0.01
5486.00,0.01
5485.00,0.01
5484.00,0.01
5483.00,0.01
5482.00,0.01
5481.00,0.01
5480.00,0.01
5479.00,0.01
5478.00,0.00
5477.00,0.00
5476.00,0.00
5475.00,0.00
5474.00,0.00
5473.00,0.01
5472.00,0.01
5471.00,0.01
5470.00,0.01
5469.00,0.01
5468.00,0.01
5467.00,0.01
5466.00,0.01
5465.00,0.01
5464.00,0.00
5463.00,0.00
5462.00,0.00
5461.00,0.00
5460.00,0.00
5459.00,0.00
5458.00,0.01
5457.00,0.01
5456.00,0.01
5455.00,0.01
5454.00,0.01
5453.00,0.01
5452.00,0.01
5451.00,0.01
5450.00,0.01
5449.00,0.01
5448.00,0.00
5447.00,0.00
5446.00,0.00
5445.00,0.00
5444.00,0.00
5443.00,0.00
5442.00,0.00
5441.00,0.00
5440.00,0.00
5439.00,0.00
5438.00,0.00
5437.00,0.00
5436.00,0.00
5435.00,0.00
5434.00,0.00
5433.00,0.00
5432.00,0.00
5431.00,0.00
5430.00,0.00
5429.00,0.00
5428.00,0.00
5427.00,0.00
5426.00,0.00
5425.00,0.01
5424.00,0.01
5423.00,0.01
5422.00,0.01
5421.00,0.01
5420.00,0.01
5419.00,0.00
5418.00,0.00
5417.00,0.00
5416.00,0.00
5415.00,0.00
5414.00,0.00
5413.00,0.00
5412.00,0.00
5411.00,0.00
5410.00,0.00
5409.00,0.00
5408.00,0.01
5407.00,0.01
5406.00,0.01
5405.00,0.01
5404.00,0.01
5403.00,0.01
5402.00,0.00
5401.00,0.00
5400.00,0.01
5399.00,0.01
5398.00,0.01
5397.00,0.00
5396.00,0.00
5395.00,0.00
5394.00,0.00
5393.00,0.00
5392.00,0.00
5391.00,0.00
5390.00,0.00
5389.00,0.01
5388.00,0.01
5387.00,0.01
5386.00,0.01
5385.00,0.01
5384.00,0.01
5383.00,0.01
5382.00,0.00
5381.00,0.00
5380.00,0.00
5379.00,0.00
5378.00,0.00
5377.00,0.00
5376.00,0.00
5375.00,0.00
5374.00,0.00
5373.00,0.00
5372.00,0.00
5371.00,0.00
5370.00,0.00
5369.00,0.00
5368.00,0.00
5367.00,0.00
5366.00,0.00
5365.00,0.00
5364.00,0.00
5363.00,0.00
5362.00,0.00
5361.00,0.00
5360.00,0.00
5359.00,0.00
5358.00,0.00
5357.00,0.00
5356.00,0.00
5355.00,0.01
5354.00,0.01
5353.00,0.01
5352.00,0.00
5351.00,0.00
5350.00,0.00
5349.00,0.00
5348.00,0.00
5347.00,0.00
5346.00,0.00
5345.00,0.00
5344.00,0.00
5343.00,0.00
5342.00,0.00
5341.00,0.00
5340.00,0.00
5339.00,0.00
5338.00,0.00
5337.00,0.00
5336.00,0.00
5335.00,0.00
5334.00,0.00
5333.00,0.00
5332.00,0.01
5331.00,0.01
5330.00,0.01
5329.00,0.00
5328.00,0.00
5327.00,0.00
5326.00,0.00
5325.00,0.00
5324.00,0.00
5323.00,0.01
5322.00,0.01
5321.00,0.01
5320.00,0.01
5319.00,0.01
5318.00,0.01
5317.00,0.01
5316.00,0.01
5315.00,0.01
5314.00,0.01
5313.00,0.01
5312.00,0.01
5311.00,0.01
5310.00,0.01
5309.00,0.01
5308.00,0.01
5307.00,0.01
5306.00,0.01
5305.00,0.01
5304.00,0.01
5303.00,0.01
5302.00,0.01
5301.00,0.02
5300.00,0.02
5299.00,0.02
5298.00,0.02
5297.00,0.02
5296.00,0.02
5295.00,0.01
5294.00,0.01
5293.00,0.01
5292.00,0.01
5291.00,0.00
5290.00,0.00
5289.00,0.00
5288.00,0.00
5287.00,0.00
5286.00,0.01
5285.00,0.01
5284.00,0.01
5283.00,0.01
5282.00,0.01
5281.00,0.01
5280.00,0.01
5279.00,0.01
5278.00,0.01
5277.00,0.01
5276.00,0.01
5275.00,0.01
5274.00,0.01
5273.00,0.01
5272.00,0.01
5271.00,0.00
5270.00,0.00
5269.00,0.00
5268.00,0.01
5267.00,0.01
5266.00,0.01
5265.00,0.01
5264.00,0.00
5263.00,0.00
5262.00,0.00
5261.00,0.01
5260.00,0.01
5259.00,0.01
5258.00,0.01
5257.00,0.01
5256.00,0.01
5255.00,0.01
5254.00,0.01
5253.00,0.01
5252.00,0.01
5251.00,0.01
5250.00,0.01
5249.00,0.01
5248.00,0.01
5247.00,0.01
5246.00,0.01
5245.00,0.01
5244.00,0.01
5243.00,0.01
5242.00,0.01
5241.00,0.01
5240.00,0.01
5239.00,0.01
5238.00,0.01
5237.00,0.01
5236.00,0.01
5235.00,0.01
5234.00,0.01
5233.00,0.01
5232.00,0.01
5231.00,0.01
5230.00,0.01
5229.00,0.01
5228.00,0.01
5227.00,0.01
5226.00,0.01
5225.00,0.01
5224.00,0.01
5223.00,0.01
5222.00,0.01
5221.00,0.01
5220.00,0.02
5219.00,0.02
5218.00,0.01
5217.00,0.01
5216.00,0.01
5215.00,0.01
5214.00,0.01
5213.00,0.01
5212.00,0.01
5211.00,0.01
5210.00,0.00
5209.00,0.00
5208.00,0.00
5207.00,0.01
5206.00,0.01
5205.00,0.01
5204.00,0.01
5203.00,0.01
5202.00,0.01
5201.00,0.01
5200.00,0.00
5199.00,0.01
5198.00,0.01
5197.00,0.01
5196.00,0.01
5195.00,0.01
5194.00,0.01
5193.00,0.01
5192.00,0.01
5191.00,0.01
5190.00,0.01
5189.00,0.01
5188.00,0.01
5187.00,0.01
5186.00,0.01
5185.00,0.01
5184.00,0.01
5183.00,0.01
5182.00,0.01
5181.00,0.01
5180.00,0.01
5179.00,0.01
5178.00,0.01
5177.00,0.01
5176.00,0.01
5175.00,0.01
5174.00,0.01
5173.00,0.01
5172.00,0.01
5171.00,0.01
5170.00,0.01
5169.00,0.01
5168.00,0.01
5167.00,0.01
5166.00,0.01
5165.00,0.01
5164.00,0.01
5163.00,0.01
5162.00,0.01
5161.00,0.01
5160.00,0.01
5159.00,0.01
5158.00,0.02
5157.00,0.02
5156.00,0.02
5155.00,0.02
5154.00,0.02
5153.00,0.02
5152.00,0.02
5151.00,0.01
5150.00,0.01
5149.00,0.01
5148.00,0.01
5147.00,0.01
5146.00,0.01
5145.00,0.01
5144.00,0.01
5143.00,0.01
5142.00,0.01
5141.00,0.01
5140.00,0.01
5139.00,0.01
5138.00,0.01
5137.00,0.01
5136.00,0.01
5135.00,0.01
5134.00,0.01
5133.00,0.01
5132.00,0.02
5131.00,0.02
5130.00,0.02
5129.00,0.02
5128.00,0.02
5127.00,0.01
5126.00,0.02
5125.00,0.02
5124.00,0.02
5123.00,0.02
5122.00,0.02
5121.00,0.02
5120.00,0.02
5119.00,0.02
5118.00,0.02
5117.00,0.02
5116.00,0.02
5115.00,0.02
5114.00,0.02
5113.00,0.01
5112.00,0.01
5111.00,0.01
5110.00,0.02
5109.00,0.02
5108.00,0.02
5107.00,0.02
5106.00,0.02
5105.00,0.02
5104.00,0.02
5103.00,0.02
5102.00,0.02
5101.00,0.02
5100.00,0.02
5099.00,0.02
5098.00,0.02
5097.00,0.02
5096.00,0.02
5095.00,0.02
5094.00,0.02
5093.00,0.02
5092.00,0.02
5091.00,0.02
5090.00,0.01
5089.00,0.01
5088.00,0.01
5087.00,0.01
5086.00,0.01
5085.00,0.01
5084.00,0.02
5083.00,0.02
5082.00,0.02
5081.00,0.02
5080.00,0.02
5079.00,0.02
5078.00,0.02
5077.00,0.02
5076.00,0.02
5075.00,0.02
5074.00,0.03
5073.00,0.03
5072.00,0.03
5071.00,0.03
5070.00,0.03
5069.00,0.02
5068.00,0.02
5067.00,0.02
5066.00,0.02
5065.00,0.02
5064.00,0.02
5063.00,0.02
5062.00,0.02
5061.00,0.02
5060.00,0.02
5059.00,0.02
5058.00,0.02
5057.00,0.02
5056.00,0.02
5055.00,0.02
5054.00,0.02
5053.00,0.02
5052.00,0.02
5051.00,0.02
5050.00,0.02
5049.00,0.02
5048.00,0.02
5047.00,0.02
5046.00,0.02
5045.00,0.02
5044.00,0.02
5043.00,0.02
5042.00,0.02
5041.00,0.02
5040.00,0.02
5039.00,0.02
5038.00,0.02
5037.00,0.02
5036.00,0.02
5035.00,0.02
5034.00,0.02
5033.00,0.02
5032.00,0.02
5031.00,0.02
5030.00,0.02
5029.00,0.02
5028.00,0.02
5027.00,0.02
5026.00,0.02
5025.00,0.02
5024.00,0.02
5023.00,0.02
5022.00,0.02
5021.00,0.01
5020.00,0.02
5019.00,0.02
5018.00,0.02
5017.00,0.02
5016.00,0.02
5015.00,0.02
5014.00,0.02
5013.00,0.02
5012.00,0.02
5011.00,0.02
5010.00,0.02
5009.00,0.02
5008.00,0.02
5007.00,0.02
5006.00,0.02
5005.00,0.02
5004.00,0.02
5003.00,0.02
5002.00,0.02
5001.00,0.02
5000.00,0.01
4999.00,0.02
4998.00,0.02
4997.00,0.02
4996.00,0.02
4995.00,0.02
4994.00,0.02
4993.00,0.02
4992.00,0.02
4991.00,0.02
4990.00,0.02
4989.00,0.02
4988.00,0.02
4987.00,0.02
4986.00,0.01
4985.00,0.01
4984.00,0.01
4983.00,0.01
4982.00,0.02
4981.00,0.02
4980.00,0.02
4979.00,0.02
4978.00,0.02
4977.00,0.02
4976.00,0.02
4975.00,0.02
4974.00,0.02
4973.00,0.01
4972.00,0.01
4971.00,0.01
4970.00,0.02
4969.00,0.02
4968.00,0.02
4967.00,0.02
4966.00,0.02
4965.00,0.02
4964.00,0.02
4963.00,0.02
4962.00,0.02
4961.00,0.02
4960.00,0.02
4959.00,0.02
4958.00,0.01
4957.00,0.01
4956.00,0.01
4955.00,0.01
4954.00,0.01
4953.00,0.01
4952.00,0.01
4951.00,0.01
4950.00,0.01
4949.00,0.01
4948.00,0.01
4947.00,0.01
4946.00,0.01
4945.00,0.01
4944.00,0.01
4943.00,0.01
4942.00,0.01
4941.00,0.01
4940.00,0.01
4939.00,0.01
4938.00,0.01
4937.00,0.01
4936.00,0.01
4935.00,0.01
4934.00,0.01
4933.00,0.01
4932.00,0.01
4931.00,0.01
4930.00,0.01
4929.00,0.01
4928.00,0.01
4927.00,0.01
4926.00,0.01
4925.00,0.01
4924.00,0.01
4923.00,0.01
4922.00,0.01
4921.00,0.01
4920.00,0.01
4919.00,0.01
4918.00,0.01
4917.00,0.01
4916.00,0.01
4915.00,0.01
4914.00,0.01
4913.00,0.01
4912.00,0.01
4911.00,0.00
4910.00,0.00
4909.00,0.01
4908.00,0.01
4907.00,0.01
4906.00,0.01
4905.00,0.01
4904.00,0.01
4903.00,0.01
4902.00,0.01
4901.00,0.01
4900.00,0.01
4899.00,0.01
4898.00,0.01
4897.00,0.01
4896.00,0.01
4895.00,0.01
4894.00,0.01
4893.00,0.01
4892.00,0.01
4891.00,0.01
4890.00,0.01
4889.00,0.01
4888.00,0.01
4887.00,0.01
4886.00,0.01
4885.00,0.01
4884.00,0.01
4883.00,0.01
4882.00,0.01
4881.00,0.01
4880.00,0.01
4879.00,0.01
4878.00,0.01
4877.00,0.01
4876.00,0.01
4875.00,0.01
4874.00,0.01
4873.00,0.01
4872.00,0.01
4871.00,0.01
4870.00,0.01
4869.00,0.01
4868.00,0.01
4867.00,0.01
4866.00,0.01
4865.00,0.01
4864.00,0.01
4863.00,0.01
4862.00,0.01
4861.00,0.01
4860.00,0.01
4859.00,0.01
4858.00,0.01
4857.00,0.01
4856.00,0.01
4855.00,0.01
4854.00,0.01
4853.00,0.01
4852.00,0.01
4851.00,0.01
4850.00,0.01
4849.00,0.01
4848.00,0.01
4847.00,0.01
4846.00,0.01
4845.00,0.01
4844.00,0.01
4843.00,0.01
4842.00,0.01
4841.00,0.01
4840.00,0.01
4839.00,0.01
4838.00,0.01
4837.00,0.01
4836.00,0.01
4835.00,0.01
4834.00,0.01
4833.00,0.01
4832.00,0.01
4831.00,0.01
4830.00,0.01
4829.00,0.01
4828.00,0.01
4827.00,0.01
4826.00,0.01
4825.00,0.01
4824.00,0.01
4823.00,0.00
4822.00,0.00
4821.00,0.00
4820.00,0.01
4819.00,0.01
4818.00,0.01
4817.00,0.01
4816.00,0.01
4815.00,0.01
4814.00,0.01
4813.00,0.01
4812.00,0.01
4811.00,0.01
4810.00,0.01
4809.00,0.01
4808.00,0.01
4807.00,0.01
4806.00,0.01
4805.00,0.01
4804.00,0.01
4803.00,0.01
4802.00,0.01
4801.00,0.01
4800.00,0.01
4799.00,0.01
4798.00,0.01
4797.00,0.01
4796.00,0.01
4795.00,0.01
4794.00,0.00
4793.00,0.00
4792.00,0.00
4791.00,0.00
4790.00,0.00
4789.00,0.00
4788.00,0.01
4787.00,0.01
4786.00,0.01
4785.00,0.01
4784.00,0.01
4783.00,0.01
4782.00,0.01
4781.00,0.01
4780.00,0.01
4779.00,0.01
4778.00,0.01
4777.00,0.01
4776.00,0.01
4775.00,0.01
4774.00,0.01
4773.00,0.00
4772.00,0.00
4771.00,0.00
4770.00,0.00
4769.00,0.01
4768.00,0.01
4767.00,0.01
4766.00,0.01
4765.00,0.01
4764.00,0.01
4763.00,0.01
4762.00,0.01
4761.00,0.01
4760.00,0.01
4759.00,0.01
4758.00,0.01
4757.00,0.01
4756.00,0.01
4755.00,0.01
4754.00,0.00
4753.00,0.00
4752.00,0.00
4751.00,0.00
4750.00,0.00
4749.00,0.01
4748.00,0.01
4747.00,0.01
4746.00,0.01
4745.00,0.00
4744.00,0.00
4743.00,0.01
4742.00,0.01
4741.00,0.01
4740.00,0.01
4739.00,0.01
4738.00,0.01
4737.00,0.01
4736.00,0.01
4735.00,0.00
4734.00,0.00
4733.00,0.00
4732.00,0.00
4731.00,0.00
4730.00,0.01
4729.00,0.01
4728.00,0.01
4727.00,0.01
4726.00,0.01
4725.00,0.01
4724.00,0.01
4723.00,0.00
4722.00,0.00
4721.00,0.00
4720.00,0.00
4719.00,0.00
4718.00,0.00
4717.00,0.00
4716.00,0.00
4715.00,0.01
4714.00,0.01
4713.00,0.01
4712.00,0.01
4711.00,0.01
4710.00,0.01
4709.00,0.01
4708.00,0.01
4707.00,0.01
4706.00,0.01
4705.00,0.01
4704.00,0.00
4703.00,0.00
4702.00,0.00
4701.00,0.00
4700.00,0.00
4699.00,0.01
4698.00,0.01
4697.00,0.01
4696.00,0.01
4695.00,0.01
4694.00,0.01
4693.00,0.01
4692.00,0.00
4691.00,0.00
4690.00,0.00
4689.00,0.00
4688.00,0.00
4687.00,0.00
4686.00,0.00
4685.00,0.00
4684.00,0.00
4683.00,0.00
4682.00,0.00
4681.00,0.00
4680.00,0.00
4679.00,0.00
4678.00,0.00
4677.00,0.00
4676.00,0.00
4675.00,0.00
4674.00,0.00
4673.00,0.00
4672.00,0.00
4671.00,0.00
4670.00,0.00
4669.00,0.00
4668.00,0.01
4667.00,0.00
4666.00,0.00
4665.00,0.00
4664.00,0.00
4663.00,0.01
4662.00,0.01
4661.00,0.01
4660.00,0.01
4659.00,0.01
4658.00,0.00
4657.00,0.00
4656.00,0.00
4655.00,0.00
4654.00,0.00
4653.00,0.00
4652.00,0.00
4651.00,0.00
4650.00,0.00
4649.00,0.00
4648.00,0.01
4647.00,0.01
4646.00,0.01
4645.00,0.01
4644.00,0.01
4643.00,0.01
4642.00,0.01
4641.00,0.01
4640.00,0.01
4639.00,0.01
4638.00,0.00
4637.00,0.00
4636.00,0.00
4635.00,0.00
4634.00,0.01
4633.00,0.01
4632.00,0.01
4631.00,0.01
4630.00,0.01
4629.00,0.01
4628.00,0.01
4627.00,0.00
4626.00,0.00
4625.00,0.00
4624.00,0.00
4623.00,0.00
4622.00,0.00
4621.00,0.00
4620.00,0.00
4619.00,0.00
4618.00,0.00
4617.00,0.00
4616.00,0.01
4615.00,0.01
4614.00,0.01
4613.00,0.01
4612.00,0.01
4611.00,0.01
4610.00,0.00
4609.00,0.00
4608.00,0.00
4607.00,0.00
4606.00,0.00
4605.00,0.00
4604.00,0.00
4603.00,0.00
4602.00,0.00
4601.00,0.00
4600.00,0.00
4599.00,0.00
4598.00,0.00
4597.00,0.00
4596.00,0.00
4595.00,0.01
4594.00,0.01
4593.00,0.01
4592.00,0.01
4591.00,0.01
4590.00,0.01
4589.00,0.01
4588.00,0.01
4587.00,0.01
4586.00,0.00
4585.00,0.00
4584.00,0.00
4583.00,0.00
4582.00,0.00
4581.00,0.00
4580.00,0.00
4579.00,0.00
4578.00,0.00
4577.00,0.00
4576.00,0.00
4575.00,0.00
4574.00,0.00
4573.00,0.00
4572.00,0.00
4571.00,0.00
4570.00,0.00
4569.00,0.00
4568.00,0.00
4567.00,0.00
4566.00,0.00
4565.00,0.00
4564.00,0.00
4563.00,0.00
4562.00,0.01
4561.00,0.01
4560.00,0.01
4559.00,0.00
4558.00,0.00
4557.00,0.00
4556.00,0.01
4555.00,0.01
4554.00,0.01
4553.00,0.01
4552.00,0.01
4551.00,0.01
4550.00,0.01
4549.00,0.01
4548.00,0.01
4547.00,0.01
4546.00,0.00
4545.00,0.00
4544.00,0.00
4543.00,0.00
4542.00,0.00
4541.00,0.00
4540.00,0.00
4539.00,0.00
4538.00,0.00
4537.00,0.01
4536.00,0.01
4535.00,0.01
4534.00,0.01
4533.00,0.01
4532.00,0.01
4531.00,0.00
4530.00,0.00
4529.00,0.00
4528.00,0.00
4527.00,0.00
4526.00,0.00
4525.00,0.00
4524.00,0.00
4523.00,0.00
4522.00,0.00
4521.00,0.00
4520.00,0.01
4519.00,0.01
4518.00,0.01
4517.00,0.01
4516.00,0.01
4515.00,0.00
4514.00,0.00
4513.00,0.00
4512.00,0.00
4511.00,0.00
4510.00,0.01
4509.00,0.01
4508.00,0.00
4507.00,0.00
4506.00,0.00
4505.00,0.00
4504.00,0.01
4503.00,0.01
4502.00,0.01
4501.00,0.01
4500.00,0.01
4499.00,0.01
4498.00,0.01
4497.00,0.01
4496.00,0.01
4495.00,0.01
4494.00,0.00
4493.00,0.00
4492.00,0.00
4491.00,0.01
4490.00,0.01
4489.00,0.01
4488.00,0.01
4487.00,0.01
4486.00,0.00
4485.00,0.00
4484.00,0.00
4483.00,0.00
4482.00,0.00
4481.00,0.00
4480.00,0.01
4479.00,0.01
4478.00,0.01
4477.00,0.00
4476.00,0.00
4475.00,0.01
4474.00,0.01
4473.00,0.01
4472.00,0.01
4471.00,0.01
4470.00,0.01
4469.00,0.01
4468.00,0.01
4467.00,0.01
4466.00,0.00
4465.00,0.00
4464.00,0.00
4463.00,0.00
4462.00,0.00
4461.00,0.00
4460.00,0.00
4459.00,0.01
4458.00,0.01
4457.00,0.01
4456.00,0.01
4455.00,0.00
4454.00,0.00
4453.00,0.00
4452.00,0.01
4451.00,0.01
4450.00,0.01
4449.00,0.01
4448.00,0.01
4447.00,0.01
4446.00,0.01
4445.00,0.01
4444.00,0.01
4443.00,0.01
4442.00,0.01
4441.00,0.01
4440.00,0.00
4439.00,0.01
4438.00,0.01
4437.00,0.01
4436.00,0.01
4435.00,0.01
4434.00,0.01
4433.00,0.01
4432.00,0.01
4431.00,0.01
4430.00,0.01
4429.00,0.01
4428.00,0.01
4427.00,0.00
4426.00,0.00
4425.00,0.00
4424.00,0.00
4423.00,0.00
4422.00,0.00
4421.00,0.00
4420.00,0.00
4419.00,0.00
4418.00,0.00
4417.00,0.00
4416.00,0.00
4415.00,0.00
4414.00,0.01
4413.00,0.01
4412.00,0.01
4411.00,0.01
4410.00,0.01
4409.00,0.01
4408.00,0.01
4407.00,0.01
4406.00,0.01
4405.00,0.01
4404.00,0.00
4403.00,0.01
4402.00,0.01
4401.00,0.01
4400.00,0.01
4399.00,0.01
4398.00,0.00
4397.00,0.00
4396.00,0.00
4395.00,0.00
4394.00,0.00
4393.00,0.01
4392.00,0.01
4391.00,0.01
4390.00,0.01
4389.00,0.01
4388.00,0.01
4387.00,0.01
4386.00,0.01
4385.00,0.01
4384.00,0.01
4383.00,0.01
4382.00,0.01
4381.00,0.01
4380.00,0.01
4379.00,0.01
4378.00,0.01
4377.00,0.00
4376.00,0.00
4375.00,0.01
4374.00,0.01
4373.00,0.01
4372.00,0.01
4371.00,0.01
4370.00,0.01
4369.00,0.01
4368.00,0.01
4367.00,0.01
4366.00,0.01
4365.00,0.01
4364.00,0.01
4363.00,0.01
4362.00,0.01
4361.00,0.01
4360.00,0.01
4359.00,0.01
4358.00,0.01
4357.00,0.01
4356.00,0.01
4355.00,0.01
4354.00,0.01
4353.00,0.01
4352.00,0.01
4351.00,0.01
4350.00,0.01
4349.00,0.00
4348.00,0.00
4347.00,0.00
4346.00,0.01
4345.00,0.01
4344.00,0.01
4343.00,0.01
4342.00,0.01
4341.00,0.01
4340.00,0.01
4339.00,0.01
4338.00,0.01
4337.00,0.01
4336.00,0.01
4335.00,0.01
4334.00,0.01
4333.00,0.01
4332.00,0.01
4331.00,0.01
4330.00,0.01
4329.00,0.01
4328.00,0.01
4327.00,0.01
4326.00,0.01
4325.00,0.01
4324.00,0.01
4323.00,0.01
4322.00,0.01
4321.00,0.00
4320.00,0.00
4319.00,0.01
4318.00,0.01
4317.00,0.01
4316.00,0.01
4315.00,0.01
4314.00,0.01
4313.00,0.01
4312.00,0.01
4311.00,0.01
4310.00,0.01
4309.00,0.01
4308.00,0.01
4307.00,0.01
4306.00,0.01
4305.00,0.01
4304.00,0.01
4303.00,0.01
4302.00,0.01
4301.00,0.01
4300.00,0.01
4299.00,0.01
4298.00,0.01
4297.00,0.01
4296.00,0.00
4295.00,0.00
4294.00,0.01
4293.00,0.01
4292.00,0.01
4291.00,0.01
4290.00,0.01
4289.00,0.01
4288.00,0.01
4287.00,0.01
4286.00,0.01
4285.00,0.01
4284.00,0.01
4283.00,0.01
4282.00,0.01
4281.00,0.01
4280.00,0.01
4279.00,0.01
4278.00,0.01
4277.00,0.01
4276.00,0.01
4275.00,0.01
4274.00,0.01
4273.00,0.01
4272.00,0.01
4271.00,0.01
4270.00,0.01
4269.00,0.01
4268.00,0.01
4267.00,0.01
4266.00,0.01
4265.00,0.01
4264.00,0.01
4263.00,0.01
4262.00,0.01
4261.00,0.01
4260.00,0.01
4259.00,0.01
4258.00,0.01
4257.00,0.01
4256.00,0.01
4255.00,0.01
4254.00,0.01
4253.00,0.01
4252.00,0.01
4251.00,0.01
4250.00,0.01
4249.00,0.01
4248.00,0.01
4247.00,0.01
4246.00,0.01
4245.00,0.01
4244.00,0.01
4243.00,0.01
4242.00,0.01
4241.00,0.01
4240.00,0.01
4239.00,0.01
4238.00,0.01
4237.00,0.01
4236.00,0.01
4235.00,0.01
4234.00,0.01
4233.00,0.01
4232.00,0.01
4231.00,0.01
4230.00,0.01
4229.00,0.01
4228.00,0.01
4227.00,0.01
4226.00,0.01
4225.00,0.01
4224.00,0.01
4223.00,0.01
4222.00,0.01
4221.00,0.01
4220.00,0.01
4219.00,0.01
4218.00,0.01
4217.00,0.01
4216.00,0.01
4215.00,0.01
4214.00,0.01
4213.00,0.01
4212.00,0.01
4211.00,0.01
4210.00,0.01
4209.00,0.01
4208.00,0.01
4207.00,0.01
4206.00,0.01
4205.00,0.01
4204.00,0.01
4203.00,0.01
4202.00,0.01
4201.00,0.01
4200.00,0.01
4199.00,0.01
4198.00,0.01
4197.00,0.01
4196.00,0.01
4195.00,0.01
4194.00,0.01
4193.00,0.01
4192.00,0.01
4191.00,0.01
4190.00,0.01
4189.00,0.01
4188.00,0.01
4187.00,0.01
4186.00,0.01
4185.00,0.01
4184.00,0.01
4183.00,0.01
4182.00,0.01
4181.00,0.01
4180.00,0.01
4179.00,0.01
4178.00,0.01
4177.00,0.01
4176.00,0.01
4175.00,0.01
4174.00,0.01
4173.00,0.01
4172.00,0.01
4171.00,0.01
4170.00,0.01
4169.00,0.01
4168.00,0.01
4167.00,0.01
4166.00,0.01
4165.00,0.01
4164.00,0.00
4163.00,0.01
4162.00,0.01
4161.00,0.01
4160.00,0.01
4159.00,0.01
4158.00,0.01
4157.00,0.01
4156.00,0.01
4155.00,0.01
4154.00,0.01
4153.00,0.01
4152.00,0.01
4151.00,0.01
4150.00,0.01
4149.00,0.01
4148.00,0.01
4147.00,0.01
4146.00,0.01
4145.00,0.01
4144.00,0.01
4143.00,0.01
4142.00,0.01
4141.00,0.01
4140.00,0.01
4139.00,0.01
4138.00,0.01
4137.00,0.01
4136.00,0.01
4135.00,0.01
4134.00,0.01
4133.00,0.01
4132.00,0.01
4131.00,0.01
4130.00,0.01
4129.00,0.01
4128.00,0.01
4127.00,0.00
4126.00,0.00
4125.00,0.01
4124.00,0.01
4123.00,0.01
4122.00,0.01
4121.00,0.01
4120.00,0.01
4119.00,0.01
4118.00,0.01
4117.00,0.01
4116.00,0.00
4115.00,0.00
4114.00,0.00
4113.00,0.00
4112.00,0.00
4111.00,0.00
4110.00,0.01
4109.00,0.01
4108.00,0.01
4107.00,0.01
4106.00,0.01
4105.00,0.01
4104.00,0.01
4103.00,0.01
4102.00,0.01
4101.00,0.01
4100.00,0.01
4099.00,0.01
4098.00,0.00
4097.00,0.00
4096.00,0.00
4095.00,0.00
4094.00,0.01
4093.00,0.00
4092.00,0.00
4091.00,0.00
4090.00,0.00
4089.00,0.00
4088.00,0.00
4087.00,0.00
4086.00,0.00
4085.00,0.00
4084.00,0.00
4083.00,0.01
4082.00,0.01
4081.00,0.01
4080.00,0.01
4079.00,0.00
4078.00,0.00
4077.00,0.00
4076.00,0.00
4075.00,0.00
4074.00,0.00
4073.00,0.00
4072.00,0.00
4071.00,0.00
4070.00,0.00
4069.00,0.00
4068.00,0.00
4067.00,0.00
4066.00,0.00
4065.00,0.01
4064.00,0.01
4063.00,0.01
4062.00,0.01
4061.00,0.01
4060.00,0.01
4059.00,0.00
4058.00,0.00
4057.00,0.00
4056.00,0.00
4055.00,0.00
4054.00,0.00
4053.00,0.00
4052.00,0.00
4051.00,0.00
4050.00,0.01
4049.00,0.01
4048.00,0.01
4047.00,0.01
4046.00,0.01
4045.00,0.01
4044.00,0.01
4043.00,0.00
4042.00,0.00
4041.00,0.00
4040.00,0.00
4039.00,0.00
4038.00,0.00
4037.00,0.00
4036.00,0.00
4035.00,0.00
4034.00,0.00
4033.00,0.00
4032.00,0.00
4031.00,0.00
4030.00,0.00
4029.00,0.01
4028.00,0.01
4027.00,0.01
4026.00,0.01
4025.00,0.00
4024.00,0.00
4023.00,0.00
4022.00,0.00
4021.00,0.00
4020.00,0.00
4019.00,0.00
4018.00,0.00
4017.00,0.00
4016.00,0.00
4015.00,0.00
4014.00,0.00
4013.00,0.00
4012.00,0.00
4011.00,0.00
4010.00,0.00
4009.00,0.00
4008.00,0.00
4007.00,0.00
4006.00,0.00
4005.00,0.00
4004.00,0.00
4003.00,0.00
4002.00,0.00
4001.00,0.00
4000.00,0.00
3999.00,0.00
3998.00,0.00
3997.00,0.00
3996.00,0.00
3995.00,0.00
3994.00,0.00
3993.00,0.00
3992.00,0.00
3991.00,0.00
3990.00,0.00
3989.00,0.00
3988.00,0.00
3987.00,0.00
3986.00,0.00
3985.00,0.00
3984.00,0.00
3983.00,0.00
3982.00,0.00
3981.00,0.00
3980.00,0.00
3979.00,0.00
3978.00,0.00
3977.00,0.00
3976.00,0.00
3975.00,0.00
3974.00,0.00
3973.00,0.00
3972.00,0.00
3971.00,0.00
3970.00,0.00
3969.00,0.00
3968.00,0.00
3967.00,0.00
3966.00,0.00
3965.00,0.00
3964.00,0.00
3963.00,0.00
3962.00,0.00
3961.00,0.00
3960.00,0.00
3959.00,0.00
3958.00,0.00
3957.00,0.00
3956.00,0.00
3955.00,0.00
3954.00,0.00
3953.00,0.00
3952.00,0.00
3951.00,0.00
3950.00,0.00
3949.00,0.00
3948.00,0.00
3947.00,0.00
3946.00,0.00
3945.00,0.00
3944.00,0.00
3943.00,0.00
3942.00,0.00
3941.00,0.00
3940.00,0.00
3939.00,0.00
3938.00,0.00
3937.00,0.00
3936.00,0.00
3935.00,0.00
3934.00,0.00
3933.00,0.00
3932.00,0.00
3931.00,0.00
3930.00,0.00
3929.00,0.00
3928.00,0.00
3927.00,0.00
3926.00,0.00
3925.00,0.00
3924.00,0.00
3923.00,0.00
3922.00,0.00
3921.00,0.00
3920.00,0.00
3919.00,0.00
3918.00,0.00
3917.00,0.00
3916.00,0.00
3915.00,0.00
3914.00,0.00
3913.00,0.00
3912.00,0.00
3911.00,0.00
3910.00,0.00
3909.00,0.00
3908.00,0.00
3907.00,0.00
3906.00,0.00
3905.00,0.00
3904.00,0.00
3903.00,0.00
3902.00,0.00
3901.00,0.00
3900.00,0.00
3899.00,0.00
3898.00,0.00
3897.00,0.00
3896.00,0.00
3895.00,0.00
3894.00,0.00
3893.00,0.00
3892.00,0.00
3891.00,0.00
3890.00,0.00
3889.00,0.00
3888.00,0.00
3887.00,0.00
3886.00,0.00
3885.00,0.00
3884.00,0.00
3883.00,0.00
3882.00,0.00
3881.00,0.00
3880.00,0.00
3879.00,0.00
3878.00,0.00
3877.00,0.00
3876.00,0.00
3875.00,0.00
3874.00,0.00
3873.00,0.00
3872.00,0.00
3871.00,0.00
3870.00,0.00
3869.00,0.00
3868.00,0.00
3867.00,0.00
3866.00,0.00
3865.00,0.00
3864.00,0.00
3863.00,0.00
3862.00,0.00
3861.00,0.00
3860.00,0.00
3859.00,0.00
3858.00,0.00
3857.00,0.00
3856.00,0.00
3855.00,0.00
3854.00,0.00
3853.00,0.00
3852.00,0.00
3851.00,0.00
3850.00,0.00
3849.00,0.00
3848.00,0.00
3847.00,0.00
3846.00,0.00
3845.00,0.00
3844.00,0.00
3843.00,0.00
3842.00,0.00
3841.00,0.00
3840.00,0.00
3839.00,0.00
3838.00,0.00
3837.00,0.00
3836.00,0.00
3835.00,0.00
3834.00,0.00
3833.00,0.00
3832.00,0.00
3831.00,0.00
3830.00,0.00
3829.00,0.00
3828.00,0.00
3827.00,0.00
3826.00,0.00
3825.00,0.00
3824.00,0.00
3823.00,0.00
3822.00,0.00
3821.00,0.00
3820.00,0.00
3819.00,0.00
3818.00,0.00
3817.00,0.00
3816.00,0.00
3815.00,0.00
3814.00,0.00
3813.00,0.00
3812.00,0.00
3811.00,0.00
3810.00,0.00
3809.00,0.00
3808.00,0.00
3807.00,0.00
3806.00,0.00
3805.00,0.00
3804.00,0.00
3803.00,0.00
3802.00,0.00
3801.00,0.00
3800.00,0.00
3799.00,0.00
3798.00,0.00
3797.00,0.00
3796.00,0.00
3795.00,0.00
3794.00,0.00
3793.00,0.00
3792.00,0.00
3791.00,0.00
3790.00,0.00
3789.00,0.00
3788.00,0.00
3787.00,0.00
3786.00,0.00
3785.00,0.00
3784.00,0.00
3783.00,0.00
3782.00,0.00
3781.00,0.00
3780.00,0.00
3779.00,0.00
3778.00,0.00
3777.00,0.00
3776.00,0.00
3775.00,0.00
3774.00,0.00
3773.00,0.00
3772.00,0.00
3771.00,0.00
3770.00,0.00
3769.00,0.00
3768.00,0.00
3767.00,0.00
3766.00,0.00
3765.00,0.00
3764.00,0.00
3763.00,0.00
3762.00,0.00
3761.00,0.00
3760.00,0.00
3759.00,0.00
3758.00,0.00
3757.00,0.00
3756.00,0.00
3755.00,0.00
3754.00,0.00
3753.00,0.00
3752.00,0.00
3751.00,0.00
3750.00,0.00
3749.00,0.00
3748.00,0.00
3747.00,0.00
3746.00,0.00
3745.00,0.00
3744.00,0.00
3743.00,0.00
3742.00,0.00
3741.00,0.00
3740.00,0.00
3739.00,0.00
3738.00,0.00
3737.00,0.00
3736.00,0.00
3735.00,0.00
3734.00,0.00
3733.00,0.00
3732.00,0.00
3731.00,0.00
3730.00,0.00
3729.00,0.00
3728.00,0.00
3727.00,0.00
3726.00,0.00
3725.00,0.00
3724.00,0.00
3723.00,0.00
3722.00,0.00
3721.00,0.00
3720.00,0.00
3719.00,0.00
3718.00,0.00
3717.00,0.00
3716.00,0.00
3715.00,0.00
3714.00,0.00
3713.00,0.00
3712.00,0.00
3711.00,0.00
3710.00,0.00
3709.00,0.00
3708.00,0.00
3707.00,0.00
3706.00,0.00
3705.00,0.00
3704.00,0.00
3703.00,0.00
3702.00,0.00
3701.00,0.00
3700.00,0.00
3699.00,0.00
3698.00,0.00
3697.00,0.00
3696.00,0.00
3695.00,0.00
3694.00,0.00
3693.00,0.00
3692.00,0.00
3691.00,0.00
3690.00,0.00
3689.00,0.00
3688.00,0.00
3687.00,0.00
3686.00,0.00
3685.00,0.00
3684.00,0.00
3683.00,0.00
3682.00,0.00
3681.00,0.00
3680.00,0.00
3679.00,0.00
3678.00,0.00
3677.00,0.00
3676.00,0.00
3675.00,0.00
3674.00,0.00
3673.00,0.00
3672.00,0.00
3671.00,0.00
3670.00,0.00
3669.00,0.00
3668.00,0.00
3667.00,0.00
3666.00,0.00
3665.00,0.00
3664.00,0.00
3663.00,0.00
3662.00,0.00
3661.00,0.00
3660.00,0.00
3659.00,0.00
3658.00,0.00
3657.00,0.00
3656.00,0.00
3655.00,0.00
3654.00,0.00
3653.00,0.00
3652.00,0.00
3651.00,0.00
3650.00,0.00
3649.00,0.00
3648.00,0.00
3647.00,0.00
3646.00,0.00
3645.00,0.00
3644.00,0.00
3643.00,0.00
3642.00,0.00
3641.00,0.00
3640.00,0.00
3639.00,0.00
3638.00,0.00
3637.00,0.00
3636.00,0.00
3635.00,0.00
3634.00,0.00
3633.00,0.00
3632.00,0.00
3631.00,0.00
3630.00,0.00
3629.00,0.00
3628.00,0.00
3627.00,0.00
3626.00,0.00
3625.00,0.00
3624.00,0.00
3623.00,0.00
3622.00,0.00
3621.00,0.00
3620.00,0.00
3619.00,0.00
3618.00,0.00
3617.00,0.00
3616.00,0.00
3615.00,0.00
3614.00,0.00
3613.00,0.00
3612.00,0.00
3611.00,0.00
3610.00,0.00
3609.00,0.00
3608.00,0.00
3607.00,0.00
3606.00,0.00
3605.00,0.00
3604.00,0.00
3603.00,0.00
3602.00,0.00
3601.00,0.00
3600.00,0.00
3599.00,0.00
3598.00,0.00
3597.00,0.00
3596.00,0.00
3595.00,0.00
3594.00,0.00
3593.00,0.00
3592.00,0.00
3591.00,0.00
3590.00,0.00
3589.00,0.00
3588.00,0.00
3587.00,0.00
3586.00,0.00
3585.00,0.00
3584.00,0.00
3583.00,0.00
3582.00,0.00
3581.00,0.00
3580.00,0.00
3579.00,0.00
3578.00,0.00
3577.00,0.00
3576.00,0.00
3575.00,0.00
3574.00,0.00
3573.00,0.00
3572.00,0.00
3571.00,0.00
3570.00,0.00
3569.00,0.00
3568.00,0.00
3567.00,0.00
3566.00,0.00
3565.00,0.00
3564.00,0.00
3563.00,0.00
3562.00,0.00
3561.00,0.00
3560.00,0.00
3559.00,0.00
3558.00,0.00
3557.00,0.00
3556.00,0.00
3555.00,0.00
3554.00,0.00
3553.00,0.00
3552.00,0.00
3551.00,0.00
3550.00,0.00
3549.00,0.00
3548.00,0.00
3547.00,0.00
3546.00,0.00
3545.00,0.00
3544.00,0.00
3543.00,0.00
3542.00,0.00
3541.00,0.00
3540.00,0.00
3539.00,0.00
3538.00,0.00
3537.00,0.00
3536.00,0.00
3535.00,0.00
3534.00,0.00
3533.00,0.00
3532.00,0.00
3531.00,0.00
3530.00,0.00
3529.00,0.00
3528.00,0.00
3527.00,0.00
3526.00,0.00
3525.00,0.00
3524.00,0.00
3523.00,0.00
3522.00,0.00
3521.00,0.00
3520.00,0.00
3519.00,0.00
3518.00,0.00
3517.00,0.00
3516.00,0.00
3515.00,0.00
3514.00,0.00
3513.00,0.00
3512.00,0.00
3511.00,0.00
3510.00,0.00
3509.00,0.00
3508.00,0.00
3507.00,0.00
3506.00,0.00
3505.00,0.00
3504.00,0.00
3503.00,0.00
3502.00,0.00
3501.00,0.00
3500.00,0.00
3499.00,0.00
3498.00,0.00
3497.00,0.00
3496.00,0.00
3495.00,0.00
3494.00,0.00
3493.00,0.00
3492.00,0.00
3491.00,0.00
3490.00,0.00
3489.00,0.00
3488.00,0.00
3487.00,0.00
3486.00,0.00
3485.00,0.00
3484.00,0.00
3483.00,0.00
3482.00,0.00
3481.00,0.00
3480.00,0.00
3479.00,0.00
3478.00,0.00
3477.00,0.00
3476.00,0.00
3475.00,0.00
3474.00,0.00
3473.00,0.00
3472.00,0.00
3471.00,0.00
3470.00,0.00
3469.00,0.00
3468.00,0.00
3467.00,0.00
3466.00,0.00
3465.00,0.00
3464.00,0.00
3463.00,0.00
3462.00,0.00
3461.00,0.00
3460.00,0.00
3459.00,0.00
3458.00,0.00
3457.00,0.00
3456.00,0.00
3455.00,0.00
3454.00,0.00
3453.00,0.00
3452.00,0.00
3451.00,0.00
3450.00,0.00
3449.00,0.00
3448.00,0.00
3447.00,0.00
3446.00,0.00
3445.00,0.00
3444.00,0.00
3443.00,0.00
3442.00,0.00
3441.00,0.00
3440.00,0.00
3439.00,0.00
3438.00,0.00
3437.00,0.00
3436.00,0.00
3435.00,0.00
3434.00,0.00
3433.00,0.00
3432.00,0.00
3431.00,0.00
3430.00,0.00
3429.00,0.00
3428.00,0.00
3427.00,0.00
3426.00,0.00
3425.00,0.00
3424.00,0.00
3423.00,0.00
3422.00,0.00
3421.00,0.00
3420.00,0.00
3419.00,0.00
3418.00,0.00
3417.00,0.00
3416.00,0.00
3415.00,0.00
3414.00,0.00
3413.00,0.00
3412.00,0.00
3411.00,0.00
3410.00,0.00
3409.00,0.00
3408.00,0.00
3407.00,0.00
3406.00,0.00
3405.00,0.00
3404.00,0.00
3403.00,0.00
3402.00,0.00
3401.00,0.00
3400.00,0.00
3399.00,0.00
3398.00,0.00
3397.00,0.00
3396.00,0.00
3395.00,0.00
3394.00,0.00
3393.00,0.00
3392.00,0.00
3391.00,0.00
3390.00,0.00
3389.00,0.00
3388.00,0.00
3387.00,0.00
3386.00,0.00
3385.00,0.00
3384.00,0.00
3383.00,0.00
3382.00,0.00
3381.00,0.00
3380.00,0.00
3379.00,0.00
3378.00,0.00
3377.00,0.00
3376.00,0.00
3375.00,0.00
3374.00,0.00
3373.00,0.00
3372.00,0.00
3371.00,0.00
3370.00,0.00
3369.00,0.00
3368.00,0.00
3367.00,0.00
3366.00,0.00
3365.00,0.00
3364.00,0.00
3363.00,0.00
3362.00,0.00
3361.00,0.00
3360.00,0.00
3359.00,0.00
3358.00,0.00
3357.00,0.00
3356.00,0.00
3355.00,0.00
3354.00,0.00
3353.00,0.00
3352.00,0.00
3351.00,0.00
3350.00,0.00
3349.00,0.00
3348.00,0.00
3347.00,0.00
3346.00,0.00
3345.00,0.00
3344.00,0.00
3343.00,0.00
3342.00,0.00
3341.00,0.00
3340.00,0.00
3339.00,0.00
3338.00,0.00
3337.00,0.00
3336.00,0.00
3335.00,0.00
3334.00,0.00
3333.00,0.00
3332.00,0.00
3331.00,0.00
3330.00,0.00
3329.00,0.00
3328.00,0.00
3327.00,0.00
3326.00,0.00
3325.00,0.00
3324.00,0.00
3323.00,0.00
3322.00,0.00
3321.00,0.00
3320.00,0.00
3319.00,0.00
3318.00,0.00
3317.00,0.00
3316.00,0.00
3315.00,0.00
3314.00,0.00
3313.00,0.00
3312.00,0.00
3311.00,0.00
3310.00,0.00
3309.00,0.00
3308.00,0.00
3307.00,0.00
3306.00,0.00
3305.00,0.00
3304.00,0.00
3303.00,0.00
3302.00,0.00
3301.00,0.00
3300.00,0.00
3299.00,0.00
3298.00,0.00
3297.00,0.00
3296.00,0.00
3295.00,0.00
3294.00,0.00
3293.00,0.00
3292.00,0.00
3291.00,0.00
3290.00,0.00
3289.00,0.00
3288.00,0.00
3287.00,0.00
3286.00,0.00
3285.00,0.00
3284.00,0.00
3283.00,0.00
3282.00,0.00
3281.00,0.00
3280.00,0.00
3279.00,0.00
3278.00,0.00
3277.00,0.00
3276.00,0.00
3275.00,0.00
3274.00,0.00
3273.00,0.00
3272.00,0.00
3271.00,0.00
3270.00,0.00
3269.00,0.00
3268.00,0.00
3267.00,0.00
3266.00,0.00
3265.00,0.00
3264.00,0.00
3263.00,0.00
3262.00,0.00
3261.00,0.00
3260.00,0.00
3259.00,0.00
3258.00,0.00
3257.00,0.00
3256.00,0.00
3255.00,0.00
3254.00,0.00
3253.00,0.00
3252.00,0.00
3251.00,0.00
3250.00,0.00
3249.00,0.00
3248.00,0.00
3247.00,0.00
3246.00,0.00
3245.00,0.00
3244.00,0.00
3243.00,0.00
3242.00,0.00
3241.00,0.00
3240.00,0.00
3239.00,0.00
3238.00,0.00
3237.00,0.00
3236.00,0.00
3235.00,0.00
3234.00,0.00
3233.00,0.00
3232.00,0.00
3231.00,0.00
3230.00,0.00
3229.00,0.00
3228.00,0.00
3227.00,0.00
3226.00,0.00
3225.00,0.00
3224.00,0.00
3223.00,0.00
3222.00,0.00
3221.00,0.00
3220.00,0.00
3219.00,0.00
3218.00,0.00
3217.00,0.00
3216.00,0.00
3215.00,0.00
3214.00,0.00
3213.00,0.00
3212.00,0.00
3211.00,0.00
3210.00,0.00
3209.00,0.00
3208.00,0.00
3207.00,0.00
3206.00,0.00
3205.00,0.00
3204.00,0.00
3203.00,0.00
3202.00,0.00
3201.00,0.00
3200.00,0.00
3199.00,0.00
3198.00,0.00
3197.00,0.00
3196.00,0.00
3195.00,0.00
3194.00,0.00
3193.00,0.00
3192.00,0.00
3191.00,0.00
3190.00,0.00
3189.00,0.00
3188.00,0.00
3187.00,0.00
3186.00,0.00
3185.00,0.00
3184.00,0.00
3183.00,0.00
3182.00,0.00
3181.00,0.00
3180.00,0.00
3179.00,0.00
3178.00,0.00
3177.00,0.00
3176.00,0.00
3175.00,0.00
3174.00,0.00
3173.00,0.00
3172.00,0.00
3171.00,0.00
3170.00,0.00
3169.00,0.00
3168.00,0.00
3167.00,0.00
3166.00,0.00
3165.00,0.00
3164.00,0.00
3163.00,0.00
3162.00,0.00
3161.00,0.00
3160.00,0.00
3159.00,0.00
3158.00,0.00
3157.00,0.00
3156.00,0.00
3155.00,0.00
3154.00,0.00
3153.00,0.00
3152.00,0.00
3151.00,0.00
3150.00,0.00
3149.00,0.00
3148.00,0.00
3147.00,0.00
3146.00,0.00
3145.00,0.00
3144.00,0.00
3143.00,0.00
3142.00,0.00
3141.00,0.00
3140.00,0.00
3139.00,0.00
3138.00,0.00
3137.00,0.00
3136.00,0.00
3135.00,0.00
3134.00,0.00
3133.00,0.00
3132.00,0.00
3131.00,0.00
3130.00,0.00
3129.00,0.00
3128.00,0.00
3127.00,0.00
3126.00,0.00
3125.00,0.00
3124.00,0.00
3123.00,0.00
3122.00,0.00
3121.00,0.00
3120.00,0.00
3119.00,0.00
3118.00,0.00
3117.00,0.00
3116.00,0.00
3115.00,0.00
3114.00,0.00
3113.00,0.00
3112.00,0.00
3111.00,0.00
3110.00,0.00
3109.00,0.00
3108.00,0.00
3107.00,0.00
3106.00,0.00
3105.00,0.00
3104.00,0.00
3103.00,0.00
3102.00,0.00
3101.00,0.00
3100.00,0.00
3099.00,0.00
3098.00,0.00
3097.00,0.00
3096.00,0.00
3095.00,0.00
3094.00,0.00
3093.00,0.00
3092.00,0.00
3091.00,0.00
3090.00,0.00
3089.00,0.00
3088.00,0.00
3087.00,0.00
3086.00,0.00
3085.00,0.00
3084.00,0.00
3083.00,0.00
3082.00,0.00
3081.00,0.00
3080.00,0.00
3079.00,0.00
3078.00,0.00
3077.00,0.00
3076.00,0.00
3075.00,0.00
3074.00,0.00
3073.00,0.00
3072.00,0.00
3071.00,0.00
3070.00,0.00
3069.00,0.00
3068.00,0.00
3067.00,0.00
3066.00,0.00
3065.00,0.00
3064.00,0.00
3063.00,0.00
3062.00,0.00
3061.00,0.00
3060.00,0.00
3059.00,0.00
3058.00,0.00
3057.00,0.00
3056.00,0.00
3055.00,0.00
3054.00,0.00
3053.00,0.00
3052.00,0.00
3051.00,0.00
3050.00,0.00
3049.00,0.00
3048.00,0.00
3047.00,0.00
3046.00,0.00
3045.00,0.00
3044.00,0.00
3043.00,0.00
3042.00,0.00
3041.00,0.00
3040.00,0.00
3039.00,0.00
3038.00,0.00
3037.00,0.00
3036.00,0.00
3035.00,0.00
3034.00,0.00
3033.00,0.00
3032.00,0.00
3031.00,0.00
3030.00,0.00
3029.00,0.00
3028.00,0.00
3027.00,0.00
3026.00,0.00
3025.00,0.00
3024.00,0.00
3023.00,0.00
3022.00,0.00
3021.00,0.00
3020.00,0.00
3019.00,0.00
3018.00,0.00
3017.00,0.00
3016.00,0.00
3015.00,0.00
3014.00,0.00
3013.00,0.00
3012.00,0.00
3011.00,0.00
3010.00,0.00
3009.00,0.00
3008.00,0.00
3007.00,0.00
3006.00,0.00
3005.00,0.00
3004.00,0.00
3003.00,0.00
3002.00,0.00
3001.00,0.00
3000.00,0.00
2999.00,0.00
2998.00,0.00
2997.00,0.00
2996.00,0.00
2995.00,0.00
2994.00,0.00
2993.00,0.00
2992.00,0.00
2991.00,0.00
2990.00,0.00
2989.00,0.00
2988.00,0.00
2987.00,0.00
2986.00,0.00
2985.00,0.00
2984.00,0.00
2983.00,0.00
2982.00,0.00
2981.00,0.00
2980.00,0.00
2979.00,0.00
2978.00,0.00
2977.00,0.00
2976.00,0.00
2975.00,0.00
2974.00,0.00
2973.00,0.00
2972.00,0.00
2971.00,0.00
2970.00,0.00
2969.00,0.00
2968.00,0.00
2967.00,0.00
2966.00,0.00
2965.00,0.00
2964.00,0.00
2963.00,0.00
2962.00,0.00
2961.00,0.00
2960.00,0.00
2959.00,0.00
2958.00,0.00
2957.00,0.00
2956.00,0.00
2955.00,0.00
2954.00,0.00
2953.00,0.00
2952.00,0.00
2951.00,0.00
2950.00,0.00
2949.00,0.00
2948.00,0.00
2947.00,0.00
2946.00,0.00
2945.00,0.00
2944.00,0.00
2943.00,0.00
2942.00,0.00
2941.00,0.00
2940.00,0.00
2939.00,0.00
2938.00,0.00
2937.00,0.00
2936.00,0.00
2935.00,0.00
2934.00,0.00
2933.00,0.00
2932.00,0.00
2931.00,0.00
2930.00,0.00
2929.00,0.00
2928.00,0.00
2927.00,0.00
2926.00,0.00
2925.00,0.00
2924.00,0.00
2923.00,0.00
2922.00,0.00
2921.00,0.00
2920.00,0.00
2919.00,0.00
2918.00,0.00
2917.00,0.00
2916.00,0.00
2915.00,0.00
2914.00,0.00
2913.00,0.00
2912.00,0.00
2911.00,0.00
2910.00,0.00
2909.00,0.00
2908.00,0.00
2907.00,0.00
2906.00,0.00
2905.00,0.00
2904.00,0.00
2903.00,0.00
2902.00,0.00
2901.00,0.00
2900.00,0.00
2899.00,0.00
2898.00,0.00
2897.00,0.00
2896.00,0.00
2895.00,0.00
2894.00,0.00
2893.00,0.00
2892.00,0.00
2891.00,0.00
2890.00,0.00
2889.00,0.00
2888.00,0.00
2887.00,0.00
2886.00,0.00
2885.00,0.00
2884.00,0.00
2883.00,0.00
2882.00,0.00
2881.00,0.00
2880.00,0.00
2879.00,0.00
2878.00,0.00
2877.00,0.00
2876.00,0.00
2875.00,0.00
2874.00,0.00
2873.00,0.00
2872.00,0.00
2871.00,0.00
2870.00,0.00
2869.00,0.00
2868.00,0.00
2867.00,0.00
2866.00,0.00
2865.00,0.00
2864.00,0.00
2863.00,0.00
2862.00,0.00
2861.00,0.00
2860.00,0.00
2859.00,0.00
2858.00,0.00
2857.00,0.00
2856.00,0.00
2855.00,0.00
2854.00,0.00
2853.00,0.00
2852.00,0.00
2851.00,0.00
2850.00,0.00
2849.00,0.00
2848.00,0.00
2847.00,0.00
2846.00,0.00
2845.00,0.00
2844.00,0.00
2843.00,0.00
2842.00,0.00
2841.00,0.00
2840.00,0.00
2839.00,0.00
2838.00,0.00
2837.00,0.00
2836.00,0.00
2835.00,0.00
2834.00,0.00
2833.00,0.00
2832.00,0.00
2831.00,0.00
2830.00,0.00
2829.00,0.00
2828.00,0.00
2827.00,0.00
2826.00,0.00
2825.00,0.00
2824.00,0.00
2823.00,0.00
2822.00,0.00
2821.00,0.00
2820.00,0.00
2819.00,0.00
2818.00,0.00
2817.00,0.00
2816.00,0.00
2815.00,0.00
2814.00,0.00
2813.00,0.00
2812.00,0.00
2811.00,0.00
2810.00,0.00
2809.00,0.00
2808.00,0.00
2807.00,0.00
2806.00,0.00
2805.00,0.00
2804.00,0.00
2803.00,0.00
2802.00,0.00
2801.00,0.00
2800.00,0.00
2799.00,0.00
2798.00,0.00
2797.00,0.00
2796.00,0.00
2795.00,0.00
2794.00,0.00
2793.00,0.00
2792.00,0.00
2791.00,0.00
2790.00,0.00
2789.00,0.00
2788.00,0.00
2787.00,0.00
2786.00,0.00
2785.00,0.00
2784.00,0.00
2783.00,0.00
2782.00,0.00
2781.00,0.00
2780.00,0.00
2779.00,0.00
2778.00,0.00
2777.00,0.00
2776.00,0.00
2775.00,0.00
2774.00,0.00
2773.00,0.00
2772.00,0.00
2771.00,0.00
2770.00,0.00
2769.00,0.00
2768.00,0.00
2767.00,0.00
2766.00,0.00
2765.00,0.00
2764.00,0.00
2763.00,0.00
2762.00,0.00
2761.00,0.00
2760.00,0.00
2759.00,0.00
2758.00,0.00
2757.00,0.00
2756.00,0.00
2755.00,0.00
2754.00,0.00
2753.00,0.00
2752.00,0.00
2751.00,0.00
2750.00,0.00
2749.00,0.00
2748.00,0.00
2747.00,0.00
2746.00,0.00
2745.00,0.00
2744.00,0.00
2743.00,0.00
2742.00,0.00
2741.00,0.00
2740.00,0.00
2739.00,0.00
2738.00,0.00
2737.00,0.00
2736.00,0.00
2735.00,0.00
2734.00,0.00
2733.00,0.00
2732.00,0.00
2731.00,0.00
2730.00,0.00
2729.00,0.00
2728.00,0.00
2727.00,0.00
2726.00,0.00
2725.00,0.00
2724.00,0.00
2723.00,0.00
2722.00,0.00
2721.00,0.00
2720.00,0.00
2719.00,0.00
2718.00,0.00
2717.00,0.00
2716.00,0.00
2715.00,0.00
2714.00,0.00
2713.00,0.00
2712.00,0.00
2711.00,0.00
2710.00,0.00
2709.00,0.00
2708.00,0.00
2707.00,0.00
2706.00,0.00
2705.00,0.00
2704.00,0.00
2703.00,0.00
2702.00,0.00
2701.00,0.00
2700.00,0.00
2699.00,0.00
2698.00,0.00
2697.00,0.00
2696.00,0.00
2695.00,0.00
2694.00,0.00
2693.00,0.00
2692.00,0.00
2691.00,0.00
2690.00,0.00
2689.00,0.00
2688.00,0.00
2687.00,0.00
2686.00,0.00
2685.00,0.00
2684.00,0.00
2683.00,0.00
2682.00,0.00
2681.00,0.00
2680.00,0.00
2679.00,0.00
2678.00,0.00
2677.00,0.00
2676.00,0.00
2675.00,0.00
2674.00,0.00
2673.00,0.00
2672.00,0.00
2671.00,0.00
2670.00,0.00
2669.00,0.00
2668.00,0.00
2667.00,0.00
2666.00,0.00
2665.00,0.00
2664.00,0.00
2663.00,0.00
2662.00,0.00
2661.00,0.00
2660.00,0.00
2659.00,0.00
2658.00,0.00
2657.00,0.00
2656.00,0.00
2655.00,0.00
2654.00,0.00
2653.00,0.00
2652.00,0.00
2651.00,0.00
2650.00,0.00
2649.00,0.00
2648.00,0.00
2647.00,0.00
2646.00,0.00
2645.00,0.00
2644.00,0.00
2643.00,0.00
2642.00,0.00
2641.00,0.00
2640.00,0.00
2639.00,0.00
2638.00,0.00
2637.00,0.00
2636.00,0.00
2635.00,0.00
2634.00,0.00
2633.00,0.00
2632.00,0.00
2631.00,0.00
2630.00,0.00
2629.00,0.00
2628.00,0.00
2627.00,0.00
2626.00,0.00
2625.00,0.00
2624.00,0.00
2623.00,0.00
2622.00,0.00
2621.00,0.00
2620.00,0.00
2619.00,0.00
2618.00,0.00
2617.00,0.00
2616.00,0.00
2615.00,0.00
2614.00,0.00
2613.00,0.00
2612.00,0.00
2611.00,0.00
2610.00,0.00
2609.00,0.00
2608.00,0.00
2607.00,0.00
2606.00,0.00
2605.00,0.00
2604.00,0.00
2603.00,0.00
2602.00,0.00
2601.00,0.00
2600.00,0.00
2599.00,0.00
2598.00,0.00
2597.00,0.00
2596.00,0.00
2595.00,0.00
2594.00,0.00
2593.00,0.00
2592.00,0.00
2591.00,0.00
2590.00,0.00
2589.00,0.00
2588.00,0.00
2587.00,0.00
2586.00,0.00
2585.00,0.00
2584.00,0.00
2583.00,0.00
2582.00,0.00
2581.00,0.00
2580.00,0.00
2579.00,0.00
2578.00,0.00
2577.00,0.00
2576.00,0.00
2575.00,0.00
2574.00,0.00
2573.00,0.00
2572.00,0.00
2571.00,0.00
2570.00,0.00
2569.00,0.00
2568.00,0.00
2567.00,0.00
2566.00,0.00
2565.00,0.00
2564.00,0.00
2563.00,0.00
2562.00,0.00
2561.00,0.00
2560.00,0.00
2559.00,0.00
2558.00,0.00
2557.00,0.00
2556.00,0.00
2555.00,0.00
2554.00,0.00
2553.00,0.00
2552.00,0.00
2551.00,0.00
2550.00,0.00
2549.00,0.00
2548.00,0.00
2547.00,0.00
2546.00,0.00
2545.00,0.00
2544.00,0.00
2543.00,0.00
2542.00,0.00
2541.00,0.00
2540.00,0.00
2539.00,0.00
2538.00,0.00
2537.00,0.00
2536.00,0.00
2535.00,0.00
2534.00,0.00
2533.00,0.00
2532.00,0.00
2531.00,0.00
2530.00,0.00
2529.00,0.00
2528.00,0.00
2527.00,0.00
2526.00,0.00
2525.00,0.00
2524.00,0.00
2523.00,0.00
2522.00,0.00
2521.00,0.00
2520.00,0.00
2519.00,0.00
2518.00,0.00
2517.00,0.00
2516.00,0.00
2515.00,0.00
2514.00,0.00
2513.00,0.00
2512.00,0.00
2511.00,0.00
2510.00,0.00
2509.00,0.00
2508.00,0.00
2507.00,0.00
2506.00,0.00
2505.00,0.00
2504.00,0.00
2503.00,0.00
2502.00,0.00
2501.00,0.00
2500.00,0.00
2499.00,0.00
2498.00,0.00
2497.00,0.00
2496.00,0.00
2495.00,0.00
2494.00,0.00
2493.00,0.00
2492.00,0.00
2491.00,0.00
2490.00,0.00
2489.00,0.00
2488.00,0.00
2487.00,0.00
2486.00,0.00
2485.00,0.00
2484.00,0.00
2483.00,0.00
2482.00,0.00
2481.00,0.00
2480.00,0.00
2479.00,0.00
2478.00,0.00
2477.00,0.00
2476.00,0.00
2475.00,0.00
2474.00,0.00
2473.00,0.00
2472.00,0.00
2471.00,0.00
2470.00,0.00
2469.00,0.00
2468.00,0.00
2467.00,0.00
2466.00,0.00
2465.00,0.00
2464.00,0.00
2463.00,0.00
2462.00,0.00
2461.00,0.00
2460.00,0.00
2459.00,0.00
2458.00,0.00
2457.00,0.00
2456.00,0.00
2455.00,0.00
2454.00,0.00
2453.00,0.00
2452.00,0.00
2451.00,0.00
2450.00,0.00
2449.00,0.00
2448.00,0.00
2447.00,0.00
2446.00,0.00
2445.00,0.00
2444.00,0.00
2443.00,0.00
2442.00,0.00
2441.00,0.00
2440.00,0.00
2439.00,0.00
2438.00,0.00
2437.00,0.00
2436.00,0.00
2435.00,0.00
2434.00,0.00
2433.00,0.00
2432.00,0.00
2431.00,0.00
2430.00,0.00
2429.00,0.00
2428.00,0.00
2427.00,0.00
2426.00,0.00
2425.00,0.00
2424.00,0.00
2423.00,0.00
2422.00,0.00
2421.00,0.00
2420.00,0.00
2419.00,0.00
2418.00,0.00
2417.00,0.00
2416.00,0.00
2415.00,0.00
2414.00,0.00
2413.00,0.00
2412.00,0.00
2411.00,0.00
2410.00,0.00
2409.00,0.00
2408.00,0.00
2407.00,0.00
2406.00,0.00
2405.00,0.00
2404.00,0.00
2403.00,0.00
2402.00,0.00
2401.00,0.00
2400.00,0.00
2399.00,0.00
2398.00,0.00
2397.00,0.00
2396.00,0.00
2395.00,0.00
2394.00,0.00
2393.00,0.00
2392.00,0.00
2391.00,0.00
2390.00,0.00
2389.00,0.00
2388.00,0.00
2387.00,0.00
2386.00,0.00
2385.00,0.00
2384.00,0.00
2383.00,0.00
2382.00,0.00
2381.00,0.00
2380.00,0.00
2379.00,0.00
2378.00,0.00
2377.00,0.00
2376.00,0.00
2375.00,0.00
2374.00,0.00
2373.00,0.00
2372.00,0.00
2371.00,0.00
2370.00,0.00
2369.00,0.00
2368.00,0.00
2367.00,0.00
2366.00,0.00
2365.00,0.00
2364.00,0.00
2363.00,0.00
2362.00,0.00
2361.00,0.00
2360.00,0.00
2359.00,0.00
2358.00,0.00
2357.00,0.00
2356.00,0.00
2355.00,0.00
2354.00,0.00
2353.00,0.00
2352.00,0.00
2351.00,0.00
2350.00,0.00
2349.00,0.00
2348.00,0.00
2347.00,0.00
2346.00,0.00
2345.00,0.00
2344.00,0.00
2343.00,0.00
2342.00,0.00
2341.00,0.00
2340.00,0.00
2339.00,0.00
2338.00,0.00
2337.00,0.00
2336.00,0.00
2335.00,0.00
2334.00,0.00
2333.00,0.00
2332.00,0.00
2331.00,0.00
2330.00,0.00
2329.00,0.00
2328.00,0.00
2327.00,0.00
2326.00,0.00
2325.00,0.00
2324.00,0.00
2323.00,0.00
2322.00,0.00
2321.00,0.00
2320.00,0.00
2319.00,0.00
2318.00,0.00
2317.00,0.00
2316.00,0.00
2315.00,0.00
2314.00,0.00
2313.00,0.00
2312.00,0.00
2311.00,0.00
2310.00,0.00
2309.00,0.00
2308.00,0.00
2307.00,0.00
2306.00,0.00
2305.00,0.00
2304.00,0.00
2303.00,0.00
2302.00,0.00
2301.00,0.00
2300.00,0.00
2299.00,0.00
2298.00,0.00
2297.00,0.00
2296.00,0.00
2295.00,0.00
2294.00,0.00
2293.00,0.00
2292.00,0.00
2291.00,0.00
2290.00,0.00
2289.00,0.00
2288.00,0.00
2287.00,0.00
2286.00,0.00
2285.00,0.00
2284.00,0.00
2283.00,0.00
2282.00,0.00
2281.00,0.00
2280.00,0.00
2279.00,0.00
2278.00,0.00
2277.00,0.00
2276.00,0.00
2275.00,0.00
2274.00,0.00
2273.00,0.00
2272.00,0.00
2271.00,0.00
2270.00,0.00
2269.00,0.00
2268.00,0.00
2267.00,0.00
2266.00,0.00
2265.00,0.00
2264.00,0.00
2263.00,0.00
2262.00,0.00
2261.00,0.00
2260.00,0.00
2259.00,0.00
2258.00,0.00
2257.00,0.00
2256.00,0.00
2255.00,0.00
2254.00,0.00
2253.00,0.00
2252.00,0.00
2251.00,0.00
2250.00,0.00
2249.00,0.00
2248.00,0.00
2247.00,0.00
2246.00,0.00
2245.00,0.00
2244.00,0.00
2243.00,0.00
2242.00,0.00
2241.00,0.00
2240.00,0.00
2239.00,0.00
2238.00,0.00
2237.00,0.00
2236.00,0.00
2235.00,0.00
2234.00,0.00
2233.00,0.00
2232.00,0.00
2231.00,0.00
2230.00,0.00
2229.00,0.00
2228.00,0.00
2227.00,0.00
2226.00,0.00
2225.00,0.00
2224.00,0.00
2223.00,0.00
2222.00,0.00
2221.00,0.00
2220.00,0.00
2219.00,0.00
2218.00,0.00
2217.00,0.00
2216.00,0.00
2215.00,0.00
2214.00,0.00
2213.00,0.00
2212.00,0.00
2211.00,0.00
2210.00,0.00
2209.00,0.00
2208.00,0.00
2207.00,0.00
2206.00,0.00
2205.00,0.00
2204.00,0.00
2203.00,0.00
2202.00,0.00
2201.00,0.00
2200.00,0.00
2199.00,0.00
2198.00,0.00
2197.00,0.00
2196.00,0.00
2195.00,0.00
2194.00,0.00
2193.00,0.00
2192.00,0.00
2191.00,0.00
2190.00,0.00
2189.00,0.00
2188.00,0.00
2187.00,0.00
2186.00,0.00
2185.00,0.00
2184.00,0.00
2183.00,0.00
2182.00,0.00
2181.00,0.00
2180.00,0.00
2179.00,0.00
2178.00,0.00
2177.00,0.00
2176.00,0.00
2175.00,0.00
2174.00,0.00
2173.00,0.00
2172.00,0.00
2171.00,0.00
2170.00,0.00
2169.00,0.00
2168.00,0.00
2167.00,0.00
2166.00,0.00
2165.00,0.00
2164.00,0.00
2163.00,0.00
2162.00,0.00
2161.00,0.00
2160.00,0.00
2159.00,0.00
2158.00,0.00
2157.00,0.00
2156.00,0.00
2155.00,0.00
2154.00,0.00
2153.00,0.00
2152.00,0.00
2151.00,0.00
2150.00,0.00
2149.00,0.00
2148.00,0.00
2147.00,0.00
2146.00,0.00
2145.00,0.00
2144.00,0.00
2143.00,0.00
2142.00,0.00
2141.00,0.00
2140.00,0.00
2139.00,0.00
2138.00,0.00
2137.00,0.00
2136.00,0.00
2135.00,0.00
2134.00,0.00
2133.00,0.00
2132.00,0.00
2131.00,0.00
2130.00,0.00
2129.00,0.00
2128.00,0.00
2127.00,0.00
2126.00,0.00
2125.00,0.00
2124.00,0.00
2123.00,0.00
2122.00,0.00
2121.00,0.00
2120.00,0.00
2119.00,0.00
2118.00,0.00
2117.00,0.00
2116.00,0.00
2115.00,0.00
2114.00,0.00
2113.00,0.00
2112.00,0.00
2111.00,0.00
2110.00,0.00
2109.00,0.00
2108.00,0.00
2107.00,0.00
2106.00,0.00
2105.00,0.00
2104.00,0.00
2103.00,0.00
2102.00,0.00
2101.00,0.00
2100.00,0.00
2099.00,0.00
2098.00,0.00
2097.00,0.00
2096.00,0.00
2095.00,0.00
2094.00,0.00
2093.00,0.00
2092.00,0.00
2091.00,0.00
2090.00,0.00
2089.00,0.00
2088.00,0.00
2087.00,0.00
2086.00,0.00
2085.00,0.00
2084.00,0.00
2083.00,0.00
2082.00,0.00
2081.00,0.00
2080.00,0.00
2079.00,0.00
2078.00,0.00
2077.00,0.00
2076.00,0.00
2075.00,0.00
2074.00,0.00
2073.00,0.00
2072.00,0.00
2071.00,0.00
2070.00,0.00
2069.00,0.00
2068.00,0.00
2067.00,0.00
2066.00,0.00
2065.00,0.00
2064.00,0.00
2063.00,0.00
2062.00,0.00
2061.00,0.00
2060.00,0.00
2059.00,0.00
2058.00,0.00
2057.00,0.00
2056.00,0.00
2055.00,0.00
2054.00,0.00
2053.00,0.00
2052.00,0.00
2051.00,0.00
2050.00,0.00
2049.00,0.00
2048.00,0.00
2047.00,0.00
2046.00,0.00
2045.00,0.00
2044.00,0.00
2043.00,0.00
2042.00,0.00
2041.00,0.00
2040.00,0.00
2039.00,0.00
2038.00,0.00
2037.00,0.00
2036.00,0.00
2035.00,0.00
2034.00,0.00
2033.00,0.00
2032.00,0.00
2031.00,0.00
2030.00,0.00
2029.00,0.00
2028.00,0.00
2027.00,0.00
2026.00,0.00
2025.00,0.00
2024.00,0.00
2023.00,0.00
2022.00,0.00
2021.00,0.00
2020.00,0.00
2019.00,0.00
2018.00,0.00
2017.00,0.00
2016.00,0.00
2015.00,0.00
2014.00,0.00
2013.00,0.00
2012.00,0.00
2011.00,0.00
2010.00,0.00
2009.00,0.00
2008.00,0.00
2007.00,0.00
2006.00,0.00
2005.00,0.00
2004.00,0.00
2003.00,0.00
2002.00,0.00
2001.00,0.00
2000.00,0.00
1999.00,0.00
1998.00,0.00
1997.00,0.00
1996.00,0.00
1995.00,0.00
1994.00,0.00
1993.00,0.00
1992.00,0.00
1991.00,0.00
1990.00,0.00
1989.00,0.00
1988.00,0.00
1987.00,0.00
1986.00,0.00
1985.00,0.00
1984.00,0.00
1983.00,0.00
1982.00,0.00
1981.00,0.00
1980.00,0.00
1979.00,0.00
1978.00,0.00
1977.00,0.00
1976.00,0.00
1975.00,0.00
1974.00,0.00
1973.00,0.00
1972.00,0.00
1971.00,0.00
1970.00,0.00
1969.00,0.00
1968.00,0.00
1967.00,0.00
1966.00,0.00
1965.00,0.00
1964.00,0.00
1963.00,0.00
1962.00,0.00
1961.00,0.00
1960.00,0.00
1959.00,0.00
1958.00,0.00
1957.00,0.00
1956.00,0.00
1955.00,0.00
1954.00,0.00
1953.00,0.00
1952.00,0.00
1951.00,0.00
1950.00,0.00
1949.00,0.00
1948.00,0.00
1947.00,0.00
1946.00,0.00
1945.00,0.00
1944.00,0.00
1943.00,0.00
1942.00,0.00
1941.00,0.00
1940.00,0.00
1939.00,0.00
1938.00,0.00
1937.00,0.00
1936.00,0.00
1935.00,0.00
1934.00,0.00
1933.00,0.00
1932.00,0.00
1931.00,0.00
1930.00,0.00
1929.00,0.00
1928.00,0.00
1927.00,0.00
1926.00,0.00
1925.00,0.00
1924.00,0.00
1923.00,0.00
1922.00,0.00
1921.00,0.00
1920.00,0.00
1919.00,0.00
1918.00,0.00
1917.00,0.00
1916.00,0.00
1915.00,0.00
1914.00,0.00
1913.00,0.00
1912.00,0.00
1911.00,0.00
1910.00,0.00
1909.00,0.00
1908.00,0.00
1907.00,0.00
1906.00,0.00
1905.00,0.00
1904.00,0.00
1903.00,0.00
1902.00,0.00
1901.00,0.00
1900.00,0.00
1899.00,0.00
1898.00,0.00
1897.00,0.00
1896.00,0.00
1895.00,0.00
1894.00,0.00
1893.00,0.00
1892.00,0.00
1891.00,0.00
1890.00,0.00
1889.00,0.00
1888.00,0.00
1887.00,0.00
1886.00,0.00
1885.00,0.00
1884.00,0.00
1883.00,0.00
1882.00,0.00
1881.00,0.00
1880.00,0.00
1879.00,0.00
1878.00,0.00
1877.00,0.00
1876.00,0.00
1875.00,0.00
1874.00,0.00
1873.00,0.00
1872.00,0.00
1871.00,0.00
1870.00,0.00
1869.00,0.00
1868.00,0.00
1867.00,0.00
1866.00,0.00
1865.00,0.00
1864.00,0.00
1863.00,0.00
1862.00,0.00
1861.00,0.00
1860.00,0.00
1859.00,0.00
1858.00,0.00
1857.00,0.00
1856.00,0.00
1855.00,0.00
1854.00,0.00
1853.00,0.00
1852.00,0.00
1851.00,0.00
1850.00,0.00
1849.00,0.00
1848.00,0.00
1847.00,0.00
1846.00,0.00
1845.00,0.00
1844.00,0.00
1843.00,0.00
1842.00,0.00
1841.00,0.00
1840.00,0.00
1839.00,0.00
1838.00,0.00
1837.00,0.00
1836.00,0.00
1835.00,0.00
1834.00,0.00
1833.00,0.00
1832.00,0.00
1831.00,0.00
1830.00,0.00
1829.00,0.00
1828.00,0.00
1827.00,0.00
1826.00,0.00
1825.00,0.00
1824.00,0.00
1823.00,0.00
1822.00,0.00
1821.00,0.00
1820.00,0.00
1819.00,0.00
1818.00,0.00
1817.00,0.00
1816.00,0.00
1815.00,0.00
1814.00,0.00
1813.00,0.00
1812.00,0.00
1811.00,0.00
1810.00,0.00
1809.00,0.00
1808.00,0.00
1807.00,0.00
1806.00,0.00
1805.00,0.00
1804.00,0.00
1803.00,0.00
1802.00,0.00
1801.00,0.00
1800.00,0.00
1799.00,0.00
1798.00,0.00
1797.00,0.00
1796.00,0.00
1795.00,0.00
1794.00,0.00
1793.00,0.00
1792.00,0.00
1791.00,0.00
1790.00,0.00
1789.00,0.00
1788.00,0.00
1787.00,0.00
1786.00,0.00
1785.00,0.00
1784.00,0.00
1783.00,0.00
1782.00,0.00
1781.00,0.00
1780.00,0.00
1779.00,0.00
1778.00,0.00
1777.00,0.00
1776.00,0.00
1775.00,0.00
1774.00,0.00
1773.00,0.00
1772.00,0.00
1771.00,0.00
1770.00,0.00
1769.00,0.00
1768.00,0.00
1767.00,0.00
1766.00,0.00
1765.00,0.00
1764.00,0.00
1763.00,0.00
1762.00,0.00
1761.00,0.00
1760.00,0.00
1759.00,0.00
1758.00,0.00
1757.00,0.00
1756.00,0.00
1755.00,0.00
1754.00,0.00
1753.00,0.00
1752.00,0.00
1751.00,0.00
1750.00,0.00
1749.00,0.00
1748.00,0.00
1747.00,0.00
1746.00,0.00
1745.00,0.00
1744.00,0.00
1743.00,0.00
1742.00,0.00
1741.00,0.00
1740.00,0.00
1739.00,0.00
1738.00,0.00
1737.00,0.00
1736.00,0.00
1735.00,0.00
1734.00,0.00
1733.00,0.00
1732.00,0.00
1731.00,0.00
1730.00,0.00
1729.00,0.00
1728.00,0.00
1727.00,0.00
1726.00,0.00
1725.00,0.00
1724.00,0.00
1723.00,0.00
1722.00,0.00
1721.00,0.00
1720.00,0.00
1719.00,0.00
1718.00,0.00
1717.00,0.00
1716.00,0.00
1715.00,0.00
1714.00,0.00
1713.00,0.00
1712.00,0.00
1711.00,0.00
1710.00,0.00
1709.00,0.00
1708.00,0.00
1707.00,0.00
1706.00,0.00
1705.00,0.00
1704.00,0.00
1703.00,0.00
1702.00,0.00
1701.00,0.00
1700.00,0.00
1699.00,0.00
1698.00,0.00
1697.00,0.00
1696.00,0.00
1695.00,0.00
1694.00,0.00
1693.00,0.00
1692.00,0.00
1691.00,0.00
1690.00,0.00
1689.00,0.00
1688.00,0.00
1687.00,0.00
1686.00,0.00
1685.00,0.00
1684.00,0.00
1683.00,0.00
1682.00,0.00
1681.00,0.00
1680.00,0.00
1679.00,0.00
1678.00,0.00
1677.00,0.00
1676.00,0.00
1675.00,0.00
1674.00,0.00
1673.00,0.00
1672.00,0.00
1671.00,0.00
1670.00,0.00
1669.00,0.00
1668.00,0.00
1667.00,0.00
1666.00,0.00
1665.00,0.00
1664.00,0.00
1663.00,0.00
1662.00,0.00
1661.00,0.00
1660.00,0.00
1659.00,0.00
1658.00,0.00
1657.00,0.00
1656.00,0.00
1655.00,0.00
1654.00,0.00
1653.00,0.00
1652.00,0.00
1651.00,0.00
1650.00,0.00
1649.00,0.00
1648.00,0.00
1647.00,0.00
1646.00,0.00
1645.00,0.00
1644.00,0.00
1643.00,0.00
1642.00,0.00
1641.00,0.00
1640.00,0.00
1639.00,0.00
1638.00,0.00
1637.00,0.00
1636.00,0.00
1635.00,0.00
1634.00,0.00
1633.00,0.00
1632.00,0.00
1631.00,0.00
1630.00,0.00
1629.00,0.00
1628.00,0.00
1627.00,0.00
1626.00,0.00
1625.00,0.00
1624.00,0.00
1623.00,0.00
1622.00,0.00
1621.00,0.00
1620.00,0.00
1619.00,0.00
1618.00,0.00
1617.00,0.00
1616.00,0.00
1615.00,0.00
1614.00,0.00
1613.00,0.00
1612.00,0.00
1611.00,0.00
1610.00,0.00
1609.00,0.00
1608.00,0.00
1607.00,0.00
1606.00,0.00
1605.00,0.00
1604.00,0.00
1603.00,0.00
1602.00,0.00
1601.00,0.00
1600.00,0.00
1599.00,0.00
1598.00,0.00
1597.00,0.00
1596.00,0.00
1595.00,0.00
1594.00,0.00
1593.00,0.00
1592.00,0.00
1591.00,0.00
1590.00,0.00
1589.00,0.00
1588.00,0.00
1587.00,0.00
1586.00,0.00
1585.00,0.00
1584.00,0.00
1583.00,0.00
1582.00,0.00
1581.00,0.00
1580.00,0.00
1579.00,0.00
1578.00,0.00
1577.00,0.00
1576.00,0.00
1575.00,0.00
1574.00,0.00
1573.00,0.00
1572.00,0.00
1571.00,0.00
1570.00,0.00
1569.00,0.00
1568.00,0.00
1567.00,0.00
1566.00,0.00
1565.00,0.00
1564.00,0.00
1563.00,0.00
1562.00,0.00
1561.00,0.00
1560.00,0.00
1559.00,0.00
1558.00,0.00
1557.00,0.00
1556.00,0.00
1555.00,0.00
1554.00,0.00
1553.00,0.00
1552.00,0.00
1551.00,0.00
1550.00,0.00
1549.00,0.00
1548.00,0.00
1547.00,0.00
1546.00,0.00
1545.00,0.00
1544.00,0.00
1543.00,0.00
1542.00,0.00
1541.00,0.00
1540.00,0.00
1539.00,0.00
1538.00,0.00
1537.00,0.00
1536.00,0.00
1535.00,0.00
1534.00,0.00
1533.00,0.00
1532.00,0.00
1531.00,0.00
1530.00,0.00
1529.00,0.00
1528.00,0.00
1527.00,0.00
1526.00,0.00
1525.00,0.00
1524.00,0.00
1523.00,0.00
1522.00,0.00
1521.00,0.00
1520.00,0.00
1519.00,0.00
1518.00,0.00
1517.00,0.00
1516.00,0.00
1515.00,0.00
1514.00,0.00
1513.00,0.00
1512.00,0.00
1511.00,0.00
1510.00,0.00
1509.00,0.00
1508.00,0.00
1507.00,0.00
1506.00,0.00
1505.00,0.00
1504.00,0.00
1503.00,0.00
1502.00,0.00
1501.00,0.00
1500.00,0.00
