Created as New Dataset,Sample 073 By Student Date Tuesday, February 27 2024
cm-1,%T
8000.00,90.11
7999.00,90.09
7998.00,90.08
7997.00,90.06
7996.00,90.04
7995.00,90.02
7994.00,90.00
7993.00,89.99
7992.00,89.97
7991.00,89.95
7990.00,89.91
7989.00,89.89
7988.00,89.90
7987.00,89.94
7986.00,89.98
7985.00,89.98
7984.00,89.97
7983.00,89.97
7982.00,89.98
7981.00,89.98
7980.00,89.94
7979.00,89.88
7978.00,89.83
7977.00,89.80
7976.00,89.79
7975.00,89.79
7974.00,89.80
7973.00,89.81
7972.00,89.82
7971.00,89.84
7970.00,89.85
7969.00,89.85
7968.00,89.85
7967.00,89.85
7966.00,89.83
7965.00,89.78
7964.00,89.72
7963.00,89.68
7962.00,89.70
7961.00,89.73
7960.00,89.74
7959.00,89.72
7958.00,89.69
7957.00,89.69
7956.00,89.71
7955.00,89.72
7954.00,89.71
7953.00,89.70
7952.00,89.69
7951.00,89.71
7950.00,89.74
7949.00,89.76
7948.00,89.75
7947.00,89.72
7946.00,89.69
7945.00,89.67
7944.00,89.64
7943.00,89.59
7942.00,89.55
7941.00,89.55
7940.00,89.60
7939.00,89.67
7938.00,89.71
7937.00,89.71
7936.00,89.71
7935.00,89.72
7934.00,89.72
7933.00,89.70
7932.00,89.65
7931.00,89.61
7930.00,89.59
7929.00,89.61
7928.00,89.65
7927.00,89.69
7926.00,89.71
7925.00,89.72
7924.00,89.73
7923.00,89.75
7922.00,89.77
7921.00,89.78
7920.00,89.75
7919.00,89.71
7918.00,89.68
7917.00,89.66
7916.00,89.66
7915.00,89.68
7914.00,89.69
7913.00,89.69
7912.00,89.68
7911.00,89.67
7910.00,89.68
7909.00,89.69
7908.00,89.68
7907.00,89.66
7906.00,89.62
7905.00,89.59
7904.00,89.61
7903.00,89.65
7902.00,89.72
7901.00,89.75
7900.00,89.75
7899.00,89.71
7898.00,89.68
7897.00,89.66
7896.00,89.65
7895.00,89.64
7894.00,89.61
7893.00,89.59
7892.00,89.58
7891.00,89.61
7890.00,89.65
7889.00,89.68
7888.00,89.69
7887.00,89.68
7886.00,89.67
7885.00,89.66
7884.00,89.66
7883.00,89.66
7882.00,89.63
7881.00,89.58
7880.00,89.55
7879.00,89.52
7878.00,89.51
7877.00,89.48
7876.00,89.44
7875.00,89.42
7874.00,89.43
7873.00,89.47
7872.00,89.51
7871.00,89.55
7870.00,89.57
7869.00,89.59
7868.00,89.59
7867.00,89.59
7866.00,89.59
7865.00,89.58
7864.00,89.56
7863.00,89.54
7862.00,89.53
7861.00,89.53
7860.00,89.52
7859.00,89.52
7858.00,89.50
7857.00,89.47
7856.00,89.43
7855.00,89.41
7854.00,89.41
7853.00,89.42
7852.00,89.42
7851.00,89.42
7850.00,89.43
7849.00,89.45
7848.00,89.48
7847.00,89.50
7846.00,89.51
7845.00,89.53
7844.00,89.54
7843.00,89.54
7842.00,89.52
7841.00,89.51
7840.00,89.50
7839.00,89.50
7838.00,89.51
7837.00,89.51
7836.00,89.51
7835.00,89.51
7834.00,89.51
7833.00,89.50
7832.00,89.48
7831.00,89.45
7830.00,89.42
7829.00,89.39
7828.00,89.39
7827.00,89.40
7826.00,89.42
7825.00,89.42
7824.00,89.42
7823.00,89.42
7822.00,89.42
7821.00,89.42
7820.00,89.39
7819.00,89.37
7818.00,89.35
7817.00,89.33
7816.00,89.32
7815.00,89.32
7814.00,89.34
7813.00,89.38
7812.00,89.44
7811.00,89.48
7810.00,89.51
7809.00,89.54
7808.00,89.58
7807.00,89.62
7806.00,89.65
7805.00,89.65
7804.00,89.65
7803.00,89.65
7802.00,89.66
7801.00,89.67
7800.00,89.67
7799.00,89.65
7798.00,89.62
7797.00,89.57
7796.00,89.51
7795.00,89.45
7794.00,89.40
7793.00,89.37
7792.00,89.34
7791.00,89.31
7790.00,89.31
7789.00,89.33
7788.00,89.36
7787.00,89.41
7786.00,89.45
7785.00,89.47
7784.00,89.47
7783.00,89.46
7782.00,89.44
7781.00,89.42
7780.00,89.39
7779.00,89.37
7778.00,89.38
7777.00,89.40
7776.00,89.43
7775.00,89.45
7774.00,89.47
7773.00,89.48
7772.00,89.48
7771.00,89.46
7770.00,89.44
7769.00,89.43
7768.00,89.42
7767.00,89.43
7766.00,89.45
7765.00,89.47
7764.00,89.49
7763.00,89.49
7762.00,89.48
7761.00,89.46
7760.00,89.45
7759.00,89.43
7758.00,89.42
7757.00,89.40
7756.00,89.38
7755.00,89.37
7754.00,89.38
7753.00,89.40
7752.00,89.43
7751.00,89.44
7750.00,89.45
7749.00,89.45
7748.00,89.46
7747.00,89.48
7746.00,89.51
7745.00,89.55
7744.00,89.58
7743.00,89.62
7742.00,89.66
7741.00,89.69
7740.00,89.71
7739.00,89.70
7738.00,89.67
7737.00,89.62
7736.00,89.58
7735.00,89.56
7734.00,89.56
7733.00,89.57
7732.00,89.58
7731.00,89.58
7730.00,89.58
7729.00,89.59
7728.00,89.59
7727.00,89.58
7726.00,89.57
7725.00,89.53
7724.00,89.49
7723.00,89.46
7722.00,89.44
7721.00,89.42
7720.00,89.40
7719.00,89.38
7718.00,89.38
7717.00,89.40
7716.00,89.44
7715.00,89.49
7714.00,89.56
7713.00,89.64
7712.00,89.72
7711.00,89.79
7710.00,89.86
7709.00,89.91
7708.00,89.94
7707.00,89.94
7706.00,89.92
7705.00,89.86
7704.00,89.80
7703.00,89.75
7702.00,89.70
7701.00,89.65
7700.00,89.59
7699.00,89.52
7698.00,89.46
7697.00,89.41
7696.00,89.36
7695.00,89.32
7694.00,89.30
7693.00,89.29
7692.00,89.31
7691.00,89.34
7690.00,89.38
7689.00,89.40
7688.00,89.42
7687.00,89.44
7686.00,89.46
7685.00,89.47
7684.00,89.48
7683.00,89.48
7682.00,89.49
7681.00,89.53
7680.00,89.58
7679.00,89.62
7678.00,89.64
7677.00,89.64
7676.00,89.63
7675.00,89.63
7674.00,89.65
7673.00,89.65
7672.00,89.62
7671.00,89.58
7670.00,89.54
7669.00,89.52
7668.00,89.51
7667.00,89.49
7666.00,89.46
7665.00,89.42
7664.00,89.38
7663.00,89.37
7662.00,89.38
7661.00,89.38
7660.00,89.38
7659.00,89.36
7658.00,89.35
7657.00,89.35
7656.00,89.36
7655.00,89.36
7654.00,89.36
7653.00,89.35
7652.00,89.33
7651.00,89.31
7650.00,89.30
7649.00,89.31
7648.00,89.35
7647.00,89.40
7646.00,89.46
7645.00,89.51
7644.00,89.56
7643.00,89.60
7642.00,89.61
7641.00,89.59
7640.00,89.55
7639.00,89.51
7638.00,89.49
7637.00,89.51
7636.00,89.54
7635.00,89.58
7634.00,89.60
7633.00,89.61
7632.00,89.61
7631.00,89.58
7630.00,89.53
7629.00,89.48
7628.00,89.42
7627.00,89.36
7626.00,89.32
7625.00,89.28
7624.00,89.26
7623.00,89.24
7622.00,89.22
7621.00,89.22
7620.00,89.24
7619.00,89.29
7618.00,89.35
7617.00,89.40
7616.00,89.42
7615.00,89.43
7614.00,89.43
7613.00,89.42
7612.00,89.40
7611.00,89.37
7610.00,89.37
7609.00,89.39
7608.00,89.44
7607.00,89.49
7606.00,89.54
7605.00,89.56
7604.00,89.58
7603.00,89.58
7602.00,89.56
7601.00,89.53
7600.00,89.49
7599.00,89.45
7598.00,89.43
7597.00,89.42
7596.00,89.42
7595.00,89.40
7594.00,89.38
7593.00,89.36
7592.00,89.33
7591.00,89.30
7590.00,89.26
7589.00,89.22
7588.00,89.19
7587.00,89.18
7586.00,89.18
7585.00,89.18
7584.00,89.18
7583.00,89.16
7582.00,89.16
7581.00,89.15
7580.00,89.15
7579.00,89.15
7578.00,89.14
7577.00,89.15
7576.00,89.16
7575.00,89.18
7574.00,89.21
7573.00,89.23
7572.00,89.24
7571.00,89.24
7570.00,89.24
7569.00,89.25
7568.00,89.25
7567.00,89.25
7566.00,89.25
7565.00,89.24
7564.00,89.25
7563.00,89.28
7562.00,89.31
7561.00,89.34
7560.00,89.36
7559.00,89.37
7558.00,89.37
7557.00,89.37
7556.00,89.35
7555.00,89.32
7554.00,89.28
7553.00,89.25
7552.00,89.23
7551.00,89.22
7550.00,89.22
7549.00,89.23
7548.00,89.23
7547.00,89.24
7546.00,89.26
7545.00,89.30
7544.00,89.34
7543.00,89.38
7542.00,89.39
7541.00,89.40
7540.00,89.41
7539.00,89.41
7538.00,89.40
7537.00,89.39
7536.00,89.38
7535.00,89.38
7534.00,89.38
7533.00,89.38
7532.00,89.38
7531.00,89.38
7530.00,89.36
7529.00,89.34
7528.00,89.31
7527.00,89.29
7526.00,89.29
7525.00,89.31
7524.00,89.33
7523.00,89.34
7522.00,89.34
7521.00,89.34
7520.00,89.35
7519.00,89.36
7518.00,89.37
7517.00,89.37
7516.00,89.36
7515.00,89.36
7514.00,89.36
7513.00,89.37
7512.00,89.38
7511.00,89.39
7510.00,89.42
7509.00,89.47
7508.00,89.53
7507.00,89.60
7506.00,89.66
7505.00,89.71
7504.00,89.77
7503.00,89.81
7502.00,89.85
7501.00,89.85
7500.00,89.83
7499.00,89.79
7498.00,89.76
7497.00,89.71
7496.00,89.67
7495.00,89.65
7494.00,89.67
7493.00,89.73
7492.00,89.81
7491.00,89.86
7490.00,89.88
7489.00,89.87
7488.00,89.83
7487.00,89.77
7486.00,89.69
7485.00,89.60
7484.00,89.52
7483.00,89.47
7482.00,89.45
7481.00,89.46
7480.00,89.47
7479.00,89.48
7478.00,89.49
7477.00,89.51
7476.00,89.55
7475.00,89.60
7474.00,89.63
7473.00,89.65
7472.00,89.67
7471.00,89.68
7470.00,89.69
7469.00,89.72
7468.00,89.74
7467.00,89.75
7466.00,89.74
7465.00,89.71
7464.00,89.67
7463.00,89.63
7462.00,89.58
7461.00,89.52
7460.00,89.46
7459.00,89.42
7458.00,89.40
7457.00,89.40
7456.00,89.42
7455.00,89.44
7454.00,89.46
7453.00,89.46
7452.00,89.47
7451.00,89.46
7450.00,89.46
7449.00,89.45
7448.00,89.45
7447.00,89.44
7446.00,89.42
7445.00,89.40
7444.00,89.40
7443.00,89.40
7442.00,89.40
7441.00,89.38
7440.00,89.35
7439.00,89.32
7438.00,89.30
7437.00,89.28
7436.00,89.27
7435.00,89.26
7434.00,89.24
7433.00,89.23
7432.00,89.24
7431.00,89.26
7430.00,89.30
7429.00,89.36
7428.00,89.43
7427.00,89.48
7426.00,89.52
7425.00,89.56
7424.00,89.60
7423.00,89.62
7422.00,89.62
7421.00,89.59
7420.00,89.54
7419.00,89.49
7418.00,89.44
7417.00,89.40
7416.00,89.37
7415.00,89.34
7414.00,89.31
7413.00,89.28
7412.00,89.26
7411.00,89.25
7410.00,89.25
7409.00,89.28
7408.00,89.31
7407.00,89.33
7406.00,89.35
7405.00,89.36
7404.00,89.36
7403.00,89.34
7402.00,89.32
7401.00,89.29
7400.00,89.26
7399.00,89.22
7398.00,89.21
7397.00,89.22
7396.00,89.24
7395.00,89.26
7394.00,89.26
7393.00,89.24
7392.00,89.23
7391.00,89.22
7390.00,89.23
7389.00,89.24
7388.00,89.27
7387.00,89.30
7386.00,89.35
7385.00,89.40
7384.00,89.45
7383.00,89.50
7382.00,89.55
7381.00,89.60
7380.00,89.64
7379.00,89.65
7378.00,89.65
7377.00,89.64
7376.00,89.61
7375.00,89.57
7374.00,89.51
7373.00,89.44
7372.00,89.38
7371.00,89.34
7370.00,89.31
7369.00,89.28
7368.00,89.27
7367.00,89.25
7366.00,89.22
7365.00,89.21
7364.00,89.22
7363.00,89.23
7362.00,89.24
7361.00,89.25
7360.00,89.26
7359.00,89.28
7358.00,89.32
7357.00,89.38
7356.00,89.47
7355.00,89.56
7354.00,89.64
7353.00,89.70
7352.00,89.73
7351.00,89.71
7350.00,89.66
7349.00,89.59
7348.00,89.53
7347.00,89.48
7346.00,89.46
7345.00,89.47
7344.00,89.50
7343.00,89.53
7342.00,89.54
7341.00,89.55
7340.00,89.54
7339.00,89.51
7338.00,89.46
7337.00,89.41
7336.00,89.37
7335.00,89.32
7334.00,89.26
7333.00,89.21
7332.00,89.16
7331.00,89.12
7330.00,89.09
7329.00,89.07
7328.00,89.05
7327.00,89.03
7326.00,89.01
7325.00,89.01
7324.00,89.01
7323.00,89.00
7322.00,89.00
7321.00,89.00
7320.00,89.00
7319.00,89.02
7318.00,89.05
7317.00,89.09
7316.00,89.14
7315.00,89.18
7314.00,89.21
7313.00,89.22
7312.00,89.21
7311.00,89.19
7310.00,89.16
7309.00,89.13
7308.00,89.12
7307.00,89.14
7306.00,89.19
7305.00,89.26
7304.00,89.33
7303.00,89.40
7302.00,89.47
7301.00,89.52
7300.00,89.56
7299.00,89.58
7298.00,89.58
7297.00,89.57
7296.00,89.54
7295.00,89.49
7294.00,89.41
7293.00,89.34
7292.00,89.27
7291.00,89.20
7290.00,89.15
7289.00,89.10
7288.00,89.08
7287.00,89.06
7286.00,89.04
7285.00,89.03
7284.00,89.02
7283.00,89.01
7282.00,89.00
7281.00,88.99
7280.00,88.99
7279.00,88.99
7278.00,88.99
7277.00,88.99
7276.00,89.00
7275.00,89.01
7274.00,89.02
7273.00,89.03
7272.00,89.05
7271.00,89.06
7270.00,89.08
7269.00,89.08
7268.00,89.08
7267.00,89.08
7266.00,89.08
7265.00,89.09
7264.00,89.12
7263.00,89.18
7262.00,89.25
7261.00,89.33
7260.00,89.40
7259.00,89.44
7258.00,89.45
7257.00,89.44
7256.00,89.40
7255.00,89.34
7254.00,89.27
7253.00,89.19
7252.00,89.13
7251.00,89.08
7250.00,89.04
7249.00,89.01
7248.00,88.99
7247.00,88.97
7246.00,88.96
7245.00,88.96
7244.00,88.99
7243.00,89.04
7242.00,89.08
7241.00,89.11
7240.00,89.14
7239.00,89.16
7238.00,89.16
7237.00,89.16
7236.00,89.14
7235.00,89.12
7234.00,89.09
7233.00,89.06
7232.00,89.05
7231.00,89.04
7230.00,89.03
7229.00,89.03
7228.00,89.03
7227.00,89.03
7226.00,89.02
7225.00,89.03
7224.00,89.03
7223.00,89.04
7222.00,89.05
7221.00,89.06
7220.00,89.07
7219.00,89.07
7218.00,89.08
7217.00,89.07
7216.00,89.05
7215.00,89.01
7214.00,88.98
7213.00,88.95
7212.00,88.93
7211.00,88.90
7210.00,88.87
7209.00,88.85
7208.00,88.83
7207.00,88.83
7206.00,88.83
7205.00,88.84
7204.00,88.85
7203.00,88.86
7202.00,88.87
7201.00,88.87
7200.00,88.87
7199.00,88.87
7198.00,88.86
7197.00,88.87
7196.00,88.89
7195.00,88.90
7194.00,88.92
7193.00,88.93
7192.00,88.93
7191.00,88.93
7190.00,88.91
7189.00,88.89
7188.00,88.87
7187.00,88.84
7186.00,88.82
7185.00,88.80
7184.00,88.78
7183.00,88.78
7182.00,88.80
7181.00,88.83
7180.00,88.87
7179.00,88.90
7178.00,88.94
7177.00,88.97
7176.00,88.98
7175.00,88.97
7174.00,88.94
7173.00,88.91
7172.00,88.87
7171.00,88.83
7170.00,88.79
7169.00,88.76
7168.00,88.73
7167.00,88.70
7166.00,88.68
7165.00,88.66
7164.00,88.64
7163.00,88.63
7162.00,88.61
7161.00,88.60
7160.00,88.59
7159.00,88.58
7158.00,88.58
7157.00,88.59
7156.00,88.59
7155.00,88.58
7154.00,88.57
7153.00,88.57
7152.00,88.57
7151.00,88.57
7150.00,88.56
7149.00,88.55
7148.00,88.55
7147.00,88.54
7146.00,88.54
7145.00,88.54
7144.00,88.54
7143.00,88.54
7142.00,88.55
7141.00,88.57
7140.00,88.61
7139.00,88.65
7138.00,88.69
7137.00,88.73
7136.00,88.77
7135.00,88.80
7134.00,88.81
7133.00,88.80
7132.00,88.77
7131.00,88.74
7130.00,88.70
7129.00,88.67
7128.00,88.64
7127.00,88.62
7126.00,88.61
7125.00,88.60
7124.00,88.59
7123.00,88.58
7122.00,88.57
7121.00,88.55
7120.00,88.53
7119.00,88.51
7118.00,88.50
7117.00,88.49
7116.00,88.49
7115.00,88.48
7114.00,88.48
7113.00,88.49
7112.00,88.50
7111.00,88.50
7110.00,88.51
7109.00,88.52
7108.00,88.53
7107.00,88.54
7106.00,88.54
7105.00,88.54
7104.00,88.54
7103.00,88.52
7102.00,88.50
7101.00,88.49
7100.00,88.49
7099.00,88.48
7098.00,88.49
7097.00,88.50
7096.00,88.52
7095.00,88.54
7094.00,88.56
7093.00,88.57
7092.00,88.58
7091.00,88.57
7090.00,88.55
7089.00,88.53
7088.00,88.51
7087.00,88.49
7086.00,88.47
7085.00,88.45
7084.00,88.45
7083.00,88.44
7082.00,88.43
7081.00,88.43
7080.00,88.43
7079.00,88.43
7078.00,88.42
7077.00,88.42
7076.00,88.43
7075.00,88.43
7074.00,88.42
7073.00,88.41
7072.00,88.40
7071.00,88.40
7070.00,88.39
7069.00,88.39
7068.00,88.40
7067.00,88.41
7066.00,88.41
7065.00,88.41
7064.00,88.42
7063.00,88.43
7062.00,88.44
7061.00,88.45
7060.00,88.45
7059.00,88.46
7058.00,88.46
7057.00,88.47
7056.00,88.47
7055.00,88.47
7054.00,88.45
7053.00,88.43
7052.00,88.42
7051.00,88.40
7050.00,88.39
7049.00,88.38
7048.00,88.38
7047.00,88.38
7046.00,88.38
7045.00,88.38
7044.00,88.37
7043.00,88.36
7042.00,88.35
7041.00,88.34
7040.00,88.34
7039.00,88.34
7038.00,88.33
7037.00,88.34
7036.00,88.34
7035.00,88.33
7034.00,88.32
7033.00,88.31
7032.00,88.31
7031.00,88.32
7030.00,88.32
7029.00,88.33
7028.00,88.34
7027.00,88.34
7026.00,88.35
7025.00,88.35
7024.00,88.36
7023.00,88.35
7022.00,88.35
7021.00,88.34
7020.00,88.34
7019.00,88.33
7018.00,88.32
7017.00,88.32
7016.00,88.33
7015.00,88.34
7014.00,88.35
7013.00,88.36
7012.00,88.37
7011.00,88.38
7010.00,88.38
7009.00,88.38
7008.00,88.38
7007.00,88.37
7006.00,88.36
7005.00,88.35
7004.00,88.34
7003.00,88.32
7002.00,88.30
7001.00,88.29
7000.00,88.28
6999.00,88.27
6998.00,88.26
6997.00,88.25
6996.00,88.25
6995.00,88.25
6994.00,88.24
6993.00,88.24
6992.00,88.23
6991.00,88.22
6990.00,88.22
6989.00,88.22
6988.00,88.23
6987.00,88.24
6986.00,88.24
6985.00,88.24
6984.00,88.23
6983.00,88.22
6982.00,88.20
6981.00,88.19
6980.00,88.18
6979.00,88.18
6978.00,88.17
6977.00,88.18
6976.00,88.19
6975.00,88.19
6974.00,88.18
6973.00,88.18
6972.00,88.18
6971.00,88.17
6970.00,88.17
6969.00,88.17
6968.00,88.17
6967.00,88.17
6966.00,88.18
6965.00,88.18
6964.00,88.19
6963.00,88.19
6962.00,88.18
6961.00,88.17
6960.00,88.17
6959.00,88.16
6958.00,88.15
6957.00,88.14
6956.00,88.14
6955.00,88.13
6954.00,88.12
6953.00,88.12
6952.00,88.12
6951.00,88.13
6950.00,88.13
6949.00,88.13
6948.00,88.13
6947.00,88.13
6946.00,88.13
6945.00,88.13
6944.00,88.13
6943.00,88.12
6942.00,88.11
6941.00,88.10
6940.00,88.10
6939.00,88.10
6938.00,88.09
6937.00,88.08
6936.00,88.08
6935.00,88.09
6934.00,88.09
6933.00,88.10
6932.00,88.11
6931.00,88.12
6930.00,88.12
6929.00,88.13
6928.00,88.13
6927.00,88.13
6926.00,88.12
6925.00,88.12
6924.00,88.11
6923.00,88.10
6922.00,88.09
6921.00,88.09
6920.00,88.09
6919.00,88.09
6918.00,88.09
6917.00,88.10
6916.00,88.10
6915.00,88.10
6914.00,88.09
6913.00,88.08
6912.00,88.08
6911.00,88.08
6910.00,88.08
6909.00,88.08
6908.00,88.09
6907.00,88.08
6906.00,88.08
6905.00,88.07
6904.00,88.07
6903.00,88.07
6902.00,88.06
6901.00,88.06
6900.00,88.07
6899.00,88.08
6898.00,88.10
6897.00,88.11
6896.00,88.13
6895.00,88.13
6894.00,88.13
6893.00,88.12
6892.00,88.12
6891.00,88.10
6890.00,88.08
6889.00,88.08
6888.00,88.09
6887.00,88.09
6886.00,88.08
6885.00,88.08
6884.00,88.09
6883.00,88.09
6882.00,88.09
6881.00,88.09
6880.00,88.09
6879.00,88.09
6878.00,88.09
6877.00,88.09
6876.00,88.10
6875.00,88.10
6874.00,88.09
6873.00,88.10
6872.00,88.10
6871.00,88.09
6870.00,88.08
6869.00,88.08
6868.00,88.08
6867.00,88.09
6866.00,88.09
6865.00,88.09
6864.00,88.10
6863.00,88.10
6862.00,88.10
6861.00,88.10
6860.00,88.10
6859.00,88.11
6858.00,88.11
6857.00,88.11
6856.00,88.12
6855.00,88.12
6854.00,88.11
6853.00,88.11
6852.00,88.11
6851.00,88.11
6850.00,88.11
6849.00,88.11
6848.00,88.12
6847.00,88.13
6846.00,88.13
6845.00,88.13
6844.00,88.14
6843.00,88.13
6842.00,88.13
6841.00,88.12
6840.00,88.12
6839.00,88.12
6838.00,88.11
6837.00,88.12
6836.00,88.12
6835.00,88.12
6834.00,88.11
6833.00,88.11
6832.00,88.10
6831.00,88.10
6830.00,88.09
6829.00,88.09
6828.00,88.10
6827.00,88.11
6826.00,88.11
6825.00,88.11
6824.00,88.10
6823.00,88.09
6822.00,88.08
6821.00,88.08
6820.00,88.08
6819.00,88.08
6818.00,88.09
6817.00,88.10
6816.00,88.11
6815.00,88.11
6814.00,88.10
6813.00,88.09
6812.00,88.09
6811.00,88.09
6810.00,88.08
6809.00,88.08
6808.00,88.08
6807.00,88.09
6806.00,88.09
6805.00,88.09
6804.00,88.09
6803.00,88.09
6802.00,88.08
6801.00,88.07
6800.00,88.07
6799.00,88.06
6798.00,88.06
6797.00,88.06
6796.00,88.06
6795.00,88.06
6794.00,88.06
6793.00,88.05
6792.00,88.06
6791.00,88.05
6790.00,88.05
6789.00,88.06
6788.00,88.07
6787.00,88.08
6786.00,88.07
6785.00,88.07
6784.00,88.06
6783.00,88.06
6782.00,88.05
6781.00,88.05
6780.00,88.05
6779.00,88.05
6778.00,88.04
6777.00,88.04
6776.00,88.05
6775.00,88.05
6774.00,88.05
6773.00,88.06
6772.00,88.07
6771.00,88.07
6770.00,88.07
6769.00,88.06
6768.00,88.06
6767.00,88.06
6766.00,88.05
6765.00,88.05
6764.00,88.06
6763.00,88.07
6762.00,88.07
6761.00,88.07
6760.00,88.07
6759.00,88.07
6758.00,88.06
6757.00,88.06
6756.00,88.06
6755.00,88.05
6754.00,88.05
6753.00,88.05
6752.00,88.06
6751.00,88.06
6750.00,88.06
6749.00,88.06
6748.00,88.08
6747.00,88.08
6746.00,88.08
6745.00,88.07
6744.00,88.06
6743.00,88.05
6742.00,88.04
6741.00,88.03
6740.00,88.04
6739.00,88.04
6738.00,88.05
6737.00,88.06
6736.00,88.07
6735.00,88.07
6734.00,88.06
6733.00,88.06
6732.00,88.06
6731.00,88.07
6730.00,88.07
6729.00,88.07
6728.00,88.07
6727.00,88.06
6726.00,88.05
6725.00,88.05
6724.00,88.05
6723.00,88.05
6722.00,88.04
6721.00,88.04
6720.00,88.05
6719.00,88.05
6718.00,88.05
6717.00,88.05
6716.00,88.05
6715.00,88.04
6714.00,88.04
6713.00,88.03
6712.00,88.04
6711.00,88.03
6710.00,88.03
6709.00,88.04
6708.00,88.05
6707.00,88.06
6706.00,88.05
6705.00,88.05
6704.00,88.06
6703.00,88.05
6702.00,88.05
6701.00,88.05
6700.00,88.06
6699.00,88.07
6698.00,88.07
6697.00,88.07
6696.00,88.07
6695.00,88.07
6694.00,88.07
6693.00,88.07
6692.00,88.07
6691.00,88.07
6690.00,88.07
6689.00,88.07
6688.00,88.07
6687.00,88.07
6686.00,88.07
6685.00,88.07
6684.00,88.08
6683.00,88.08
6682.00,88.08
6681.00,88.08
6680.00,88.09
6679.00,88.09
6678.00,88.09
6677.00,88.09
6676.00,88.10
6675.00,88.09
6674.00,88.09
6673.00,88.10
6672.00,88.10
6671.00,88.10
6670.00,88.10
6669.00,88.10
6668.00,88.10
6667.00,88.10
6666.00,88.09
6665.00,88.09
6664.00,88.09
6663.00,88.09
6662.00,88.08
6661.00,88.08
6660.00,88.08
6659.00,88.07
6658.00,88.07
6657.00,88.07
6656.00,88.08
6655.00,88.08
6654.00,88.08
6653.00,88.08
6652.00,88.08
6651.00,88.08
6650.00,88.08
6649.00,88.08
6648.00,88.08
6647.00,88.08
6646.00,88.07
6645.00,88.06
6644.00,88.06
6643.00,88.06
6642.00,88.06
6641.00,88.06
6640.00,88.07
6639.00,88.06
6638.00,88.06
6637.00,88.06
6636.00,88.06
6635.00,88.05
6634.00,88.05
6633.00,88.05
6632.00,88.05
6631.00,88.05
6630.00,88.04
6629.00,88.03
6628.00,88.04
6627.00,88.04
6626.00,88.04
6625.00,88.04
6624.00,88.04
6623.00,88.03
6622.00,88.02
6621.00,88.01
6620.00,88.01
6619.00,88.00
6618.00,88.00
6617.00,88.01
6616.00,88.03
6615.00,88.04
6614.00,88.04
6613.00,88.03
6612.00,88.03
6611.00,88.02
6610.00,88.02
6609.00,88.01
6608.00,88.02
6607.00,88.02
6606.00,88.01
6605.00,88.01
6604.00,88.01
6603.00,88.00
6602.00,87.99
6601.00,87.99
6600.00,88.00
6599.00,88.01
6598.00,88.00
6597.00,88.00
6596.00,88.00
6595.00,88.00
6594.00,87.99
6593.00,87.99
6592.00,88.00
6591.00,88.00
6590.00,88.00
6589.00,88.00
6588.00,88.00
6587.00,88.00
6586.00,88.00
6585.00,88.00
6584.00,88.00
6583.00,87.99
6582.00,87.98
6581.00,87.98
6580.00,87.97
6579.00,87.97
6578.00,87.97
6577.00,87.97
6576.00,87.98
6575.00,87.98
6574.00,87.98
6573.00,87.98
6572.00,87.98
6571.00,87.98
6570.00,87.97
6569.00,87.97
6568.00,87.97
6567.00,87.97
6566.00,87.96
6565.00,87.96
6564.00,87.96
6563.00,87.96
6562.00,87.96
6561.00,87.96
6560.00,87.97
6559.00,87.97
6558.00,87.96
6557.00,87.95
6556.00,87.94
6555.00,87.93
6554.00,87.92
6553.00,87.93
6552.00,87.94
6551.00,87.95
6550.00,87.96
6549.00,87.96
6548.00,87.96
6547.00,87.96
6546.00,87.94
6545.00,87.93
6544.00,87.92
6543.00,87.92
6542.00,87.93
6541.00,87.93
6540.00,87.94
6539.00,87.94
6538.00,87.92
6537.00,87.91
6536.00,87.91
6535.00,87.90
6534.00,87.90
6533.00,87.91
6532.00,87.92
6531.00,87.93
6530.00,87.93
6529.00,87.92
6528.00,87.92
6527.00,87.92
6526.00,87.91
6525.00,87.92
6524.00,87.92
6523.00,87.92
6522.00,87.92
6521.00,87.91
6520.00,87.91
6519.00,87.89
6518.00,87.88
6517.00,87.89
6516.00,87.90
6515.00,87.90
6514.00,87.90
6513.00,87.91
6512.00,87.91
6511.00,87.92
6510.00,87.91
6509.00,87.91
6508.00,87.91
6507.00,87.90
6506.00,87.90
6505.00,87.91
6504.00,87.91
6503.00,87.91
6502.00,87.90
6501.00,87.91
6500.00,87.91
6499.00,87.91
6498.00,87.91
6497.00,87.91
6496.00,87.92
6495.00,87.92
6494.00,87.91
6493.00,87.91
6492.00,87.90
6491.00,87.89
6490.00,87.88
6489.00,87.88
6488.00,87.88
6487.00,87.88
6486.00,87.88
6485.00,87.88
6484.00,87.88
6483.00,87.88
6482.00,87.87
6481.00,87.86
6480.00,87.87
6479.00,87.87
6478.00,87.86
6477.00,87.87
6476.00,87.88
6475.00,87.88
6474.00,87.88
6473.00,87.87
6472.00,87.86
6471.00,87.86
6470.00,87.85
6469.00,87.85
6468.00,87.85
6467.00,87.85
6466.00,87.84
6465.00,87.83
6464.00,87.83
6463.00,87.82
6462.00,87.82
6461.00,87.82
6460.00,87.82
6459.00,87.83
6458.00,87.83
6457.00,87.83
6456.00,87.83
6455.00,87.83
6454.00,87.81
6453.00,87.81
6452.00,87.80
6451.00,87.79
6450.00,87.78
6449.00,87.77
6448.00,87.77
6447.00,87.77
6446.00,87.77
6445.00,87.77
6444.00,87.77
6443.00,87.77
6442.00,87.77
6441.00,87.76
6440.00,87.76
6439.00,87.76
6438.00,87.75
6437.00,87.75
6436.00,87.75
6435.00,87.75
6434.00,87.75
6433.00,87.75
6432.00,87.76
6431.00,87.75
6430.00,87.74
6429.00,87.74
6428.00,87.74
6427.00,87.74
6426.00,87.73
6425.00,87.73
6424.00,87.73
6423.00,87.73
6422.00,87.72
6421.00,87.72
6420.00,87.72
6419.00,87.72
6418.00,87.71
6417.00,87.70
6416.00,87.70
6415.00,87.70
6414.00,87.69
6413.00,87.69
6412.00,87.70
6411.00,87.69
6410.00,87.69
6409.00,87.68
6408.00,87.68
6407.00,87.68
6406.00,87.68
6405.00,87.68
6404.00,87.69
6403.00,87.69
6402.00,87.68
6401.00,87.68
6400.00,87.68
6399.00,87.68
6398.00,87.67
6397.00,87.67
6396.00,87.67
6395.00,87.66
6394.00,87.65
6393.00,87.65
6392.00,87.65
6391.00,87.64
6390.00,87.64
6389.00,87.64
6388.00,87.65
6387.00,87.64
6386.00,87.63
6385.00,87.63
6384.00,87.63
6383.00,87.63
6382.00,87.63
6381.00,87.63
6380.00,87.64
6379.00,87.63
6378.00,87.62
6377.00,87.61
6376.00,87.61
6375.00,87.60
6374.00,87.60
6373.00,87.60
6372.00,87.61
6371.00,87.61
6370.00,87.60
6369.00,87.60
6368.00,87.60
6367.00,87.59
6366.00,87.59
6365.00,87.59
6364.00,87.59
6363.00,87.59
6362.00,87.58
6361.00,87.58
6360.00,87.58
6359.00,87.57
6358.00,87.56
6357.00,87.55
6356.00,87.56
6355.00,87.56
6354.00,87.55
6353.00,87.55
6352.00,87.55
6351.00,87.55
6350.00,87.54
6349.00,87.54
6348.00,87.54
6347.00,87.54
6346.00,87.53
6345.00,87.54
6344.00,87.54
6343.00,87.53
6342.00,87.52
6341.00,87.52
6340.00,87.51
6339.00,87.51
6338.00,87.50
6337.00,87.50
6336.00,87.51
6335.00,87.52
6334.00,87.52
6333.00,87.52
6332.00,87.52
6331.00,87.52
6330.00,87.50
6329.00,87.50
6328.00,87.50
6327.00,87.50
6326.00,87.49
6325.00,87.49
6324.00,87.50
6323.00,87.50
6322.00,87.50
6321.00,87.49
6320.00,87.49
6319.00,87.49
6318.00,87.48
6317.00,87.48
6316.00,87.49
6315.00,87.48
6314.00,87.48
6313.00,87.47
6312.00,87.48
6311.00,87.47
6310.00,87.47
6309.00,87.46
6308.00,87.46
6307.00,87.46
6306.00,87.45
6305.00,87.45
6304.00,87.45
6303.00,87.45
6302.00,87.44
6301.00,87.44
6300.00,87.44
6299.00,87.43
6298.00,87.42
6297.00,87.41
6296.00,87.41
6295.00,87.41
6294.00,87.40
6293.00,87.40
6292.00,87.41
6291.00,87.40
6290.00,87.40
6289.00,87.39
6288.00,87.39
6287.00,87.38
6286.00,87.38
6285.00,87.37
6284.00,87.37
6283.00,87.37
6282.00,87.36
6281.00,87.35
6280.00,87.35
6279.00,87.34
6278.00,87.33
6277.00,87.33
6276.00,87.33
6275.00,87.32
6274.00,87.31
6273.00,87.31
6272.00,87.31
6271.00,87.30
6270.00,87.29
6269.00,87.29
6268.00,87.29
6267.00,87.29
6266.00,87.28
6265.00,87.28
6264.00,87.28
6263.00,87.28
6262.00,87.27
6261.00,87.27
6260.00,87.27
6259.00,87.27
6258.00,87.26
6257.00,87.26
6256.00,87.26
6255.00,87.26
6254.00,87.25
6253.00,87.25
6252.00,87.24
6251.00,87.23
6250.00,87.22
6249.00,87.22
6248.00,87.22
6247.00,87.22
6246.00,87.21
6245.00,87.21
6244.00,87.21
6243.00,87.21
6242.00,87.21
6241.00,87.21
6240.00,87.21
6239.00,87.21
6238.00,87.20
6237.00,87.20
6236.00,87.20
6235.00,87.20
6234.00,87.19
6233.00,87.18
6232.00,87.18
6231.00,87.17
6230.00,87.16
6229.00,87.15
6228.00,87.15
6227.00,87.15
6226.00,87.15
6225.00,87.15
6224.00,87.15
6223.00,87.15
6222.00,87.15
6221.00,87.14
6220.00,87.14
6219.00,87.14
6218.00,87.13
6217.00,87.13
6216.00,87.13
6215.00,87.12
6214.00,87.12
6213.00,87.11
6212.00,87.11
6211.00,87.11
6210.00,87.10
6209.00,87.10
6208.00,87.10
6207.00,87.10
6206.00,87.09
6205.00,87.09
6204.00,87.10
6203.00,87.09
6202.00,87.08
6201.00,87.08
6200.00,87.08
6199.00,87.07
6198.00,87.06
6197.00,87.05
6196.00,87.05
6195.00,87.05
6194.00,87.04
6193.00,87.03
6192.00,87.03
6191.00,87.02
6190.00,87.01
6189.00,87.01
6188.00,87.01
6187.00,87.01
6186.00,87.00
6185.00,87.00
6184.00,87.00
6183.00,86.99
6182.00,86.98
6181.00,86.97
6180.00,86.97
6179.00,86.96
6178.00,86.95
6177.00,86.95
6176.00,86.95
6175.00,86.95
6174.00,86.95
6173.00,86.95
6172.00,86.95
6171.00,86.95
6170.00,86.94
6169.00,86.94
6168.00,86.95
6167.00,86.95
6166.00,86.94
6165.00,86.94
6164.00,86.94
6163.00,86.94
6162.00,86.93
6161.00,86.92
6160.00,86.92
6159.00,86.91
6158.00,86.90
6157.00,86.90
6156.00,86.90
6155.00,86.90
6154.00,86.89
6153.00,86.89
6152.00,86.89
6151.00,86.89
6150.00,86.89
6149.00,86.89
6148.00,86.89
6147.00,86.88
6146.00,86.88
6145.00,86.88
6144.00,86.88
6143.00,86.87
6142.00,86.87
6141.00,86.87
6140.00,86.87
6139.00,86.87
6138.00,86.87
6137.00,86.86
6136.00,86.86
6135.00,86.85
6134.00,86.84
6133.00,86.83
6132.00,86.83
6131.00,86.83
6130.00,86.82
6129.00,86.82
6128.00,86.83
6127.00,86.82
6126.00,86.82
6125.00,86.81
6124.00,86.81
6123.00,86.80
6122.00,86.78
6121.00,86.78
6120.00,86.77
6119.00,86.77
6118.00,86.76
6117.00,86.76
6116.00,86.77
6115.00,86.77
6114.00,86.76
6113.00,86.75
6112.00,86.75
6111.00,86.74
6110.00,86.73
6109.00,86.73
6108.00,86.73
6107.00,86.72
6106.00,86.71
6105.00,86.71
6104.00,86.70
6103.00,86.70
6102.00,86.69
6101.00,86.68
6100.00,86.68
6099.00,86.67
6098.00,86.66
6097.00,86.65
6096.00,86.65
6095.00,86.65
6094.00,86.64
6093.00,86.63
6092.00,86.62
6091.00,86.62
6090.00,86.60
6089.00,86.60
6088.00,86.60
6087.00,86.60
6086.00,86.59
6085.00,86.59
6084.00,86.59
6083.00,86.58
6082.00,86.57
6081.00,86.56
6080.00,86.56
6079.00,86.55
6078.00,86.55
6077.00,86.54
6076.00,86.55
6075.00,86.54
6074.00,86.53
6073.00,86.53
6072.00,86.52
6071.00,86.52
6070.00,86.51
6069.00,86.51
6068.00,86.51
6067.00,86.51
6066.00,86.51
6065.00,86.50
6064.00,86.50
6063.00,86.50
6062.00,86.49
6061.00,86.49
6060.00,86.49
6059.00,86.49
6058.00,86.48
6057.00,86.48
6056.00,86.48
6055.00,86.47
6054.00,86.46
6053.00,86.45
6052.00,86.45
6051.00,86.45
6050.00,86.44
6049.00,86.43
6048.00,86.44
6047.00,86.43
6046.00,86.43
6045.00,86.42
6044.00,86.42
6043.00,86.41
6042.00,86.40
6041.00,86.40
6040.00,86.39
6039.00,86.39
6038.00,86.39
6037.00,86.38
6036.00,86.38
6035.00,86.38
6034.00,86.37
6033.00,86.37
6032.00,86.36
6031.00,86.36
6030.00,86.35
6029.00,86.34
6028.00,86.33
6027.00,86.32
6026.00,86.31
6025.00,86.30
6024.00,86.30
6023.00,86.30
6022.00,86.30
6021.00,86.30
6020.00,86.29
6019.00,86.28
6018.00,86.27
6017.00,86.26
6016.00,86.26
6015.00,86.25
6014.00,86.24
6013.00,86.24
6012.00,86.24
6011.00,86.24
6010.00,86.23
6009.00,86.23
6008.00,86.22
6007.00,86.21
6006.00,86.20
6005.00,86.19
6004.00,86.19
6003.00,86.19
6002.00,86.18
6001.00,86.18
6000.00,86.18
5999.00,86.17
5998.00,86.16
5997.00,86.15
5996.00,86.14
5995.00,86.13
5994.00,86.12
5993.00,86.12
5992.00,86.12
5991.00,86.12
5990.00,86.12
5989.00,86.12
5988.00,86.12
5987.00,86.12
5986.00,86.11
5985.00,86.10
5984.00,86.10
5983.00,86.09
5982.00,86.09
5981.00,86.08
5980.00,86.08
5979.00,86.08
5978.00,86.07
5977.00,86.07
5976.00,86.07
5975.00,86.07
5974.00,86.06
5973.00,86.06
5972.00,86.05
5971.00,86.05
5970.00,86.04
5969.00,86.03
5968.00,86.03
5967.00,86.03
5966.00,86.02
5965.00,86.02
5964.00,86.02
5963.00,86.02
5962.00,86.01
5961.00,86.01
5960.00,86.01
5959.00,86.01
5958.00,86.00
5957.00,85.99
5956.00,85.99
5955.00,85.99
5954.00,85.98
5953.00,85.97
5952.00,85.98
5951.00,85.97
5950.00,85.97
5949.00,85.97
5948.00,85.97
5947.00,85.96
5946.00,85.96
5945.00,85.95
5944.00,85.95
5943.00,85.95
5942.00,85.95
5941.00,85.95
5940.00,85.95
5939.00,85.95
5938.00,85.94
5937.00,85.94
5936.00,85.94
5935.00,85.94
5934.00,85.94
5933.00,85.94
5932.00,85.94
5931.00,85.94
5930.00,85.93
5929.00,85.93
5928.00,85.93
5927.00,85.93
5926.00,85.92
5925.00,85.92
5924.00,85.92
5923.00,85.91
5922.00,85.90
5921.00,85.89
5920.00,85.89
5919.00,85.88
5918.00,85.87
5917.00,85.87
5916.00,85.86
5915.00,85.85
5914.00,85.84
5913.00,85.83
5912.00,85.83
5911.00,85.82
5910.00,85.82
5909.00,85.81
5908.00,85.81
5907.00,85.80
5906.00,85.80
5905.00,85.79
5904.00,85.78
5903.00,85.77
5902.00,85.76
5901.00,85.75
5900.00,85.75
5899.00,85.74
5898.00,85.73
5897.00,85.73
5896.00,85.73
5895.00,85.73
5894.00,85.72
5893.00,85.71
5892.00,85.71
5891.00,85.70
5890.00,85.69
5889.00,85.68
5888.00,85.67
5887.00,85.67
5886.00,85.67
5885.00,85.67
5884.00,85.67
5883.00,85.67
5882.00,85.66
5881.00,85.67
5880.00,85.67
5879.00,85.66
5878.00,85.65
5877.00,85.65
5876.00,85.64
5875.00,85.64
5874.00,85.63
5873.00,85.63
5872.00,85.63
5871.00,85.63
5870.00,85.63
5869.00,85.62
5868.00,85.62
5867.00,85.62
5866.00,85.62
5865.00,85.62
5864.00,85.62
5863.00,85.62
5862.00,85.61
5861.00,85.61
5860.00,85.60
5859.00,85.59
5858.00,85.58
5857.00,85.58
5856.00,85.58
5855.00,85.58
5854.00,85.58
5853.00,85.58
5852.00,85.58
5851.00,85.57
5850.00,85.56
5849.00,85.55
5848.00,85.54
5847.00,85.53
5846.00,85.52
5845.00,85.51
5844.00,85.50
5843.00,85.49
5842.00,85.48
5841.00,85.47
5840.00,85.46
5839.00,85.45
5838.00,85.44
5837.00,85.42
5836.00,85.41
5835.00,85.40
5834.00,85.38
5833.00,85.37
5832.00,85.36
5831.00,85.35
5830.00,85.33
5829.00,85.32
5828.00,85.32
5827.00,85.31
5826.00,85.29
5825.00,85.28
5824.00,85.26
5823.00,85.25
5822.00,85.23
5821.00,85.22
5820.00,85.21
5819.00,85.20
5818.00,85.19
5817.00,85.18
5816.00,85.17
5815.00,85.16
5814.00,85.15
5813.00,85.14
5812.00,85.14
5811.00,85.13
5810.00,85.12
5809.00,85.12
5808.00,85.11
5807.00,85.11
5806.00,85.10
5805.00,85.08
5804.00,85.08
5803.00,85.06
5802.00,85.05
5801.00,85.05
5800.00,85.04
5799.00,85.03
5798.00,85.02
5797.00,85.01
5796.00,85.00
5795.00,84.99
5794.00,84.98
5793.00,84.97
5792.00,84.97
5791.00,84.96
5790.00,84.95
5789.00,84.94
5788.00,84.93
5787.00,84.93
5786.00,84.92
5785.00,84.92
5784.00,84.91
5783.00,84.90
5782.00,84.88
5781.00,84.87
5780.00,84.87
5779.00,84.86
5778.00,84.85
5777.00,84.84
5776.00,84.83
5775.00,84.82
5774.00,84.81
5773.00,84.80
5772.00,84.80
5771.00,84.79
5770.00,84.77
5769.00,84.76
5768.00,84.75
5767.00,84.74
5766.00,84.73
5765.00,84.72
5764.00,84.72
5763.00,84.71
5762.00,84.70
5761.00,84.70
5760.00,84.69
5759.00,84.69
5758.00,84.68
5757.00,84.67
5756.00,84.67
5755.00,84.66
5754.00,84.65
5753.00,84.64
5752.00,84.63
5751.00,84.62
5750.00,84.61
5749.00,84.61
5748.00,84.60
5747.00,84.60
5746.00,84.59
5745.00,84.58
5744.00,84.58
5743.00,84.57
5742.00,84.56
5741.00,84.56
5740.00,84.55
5739.00,84.54
5738.00,84.53
5737.00,84.52
5736.00,84.51
5735.00,84.50
5734.00,84.50
5733.00,84.50
5732.00,84.50
5731.00,84.50
5730.00,84.49
5729.00,84.48
5728.00,84.47
5727.00,84.46
5726.00,84.45
5725.00,84.45
5724.00,84.45
5723.00,84.44
5722.00,84.43
5721.00,84.43
5720.00,84.42
5719.00,84.42
5718.00,84.41
5717.00,84.40
5716.00,84.40
5715.00,84.39
5714.00,84.38
5713.00,84.37
5712.00,84.36
5711.00,84.35
5710.00,84.34
5709.00,84.33
5708.00,84.32
5707.00,84.30
5706.00,84.29
5705.00,84.28
5704.00,84.28
5703.00,84.27
5702.00,84.26
5701.00,84.25
5700.00,84.24
5699.00,84.23
5698.00,84.21
5697.00,84.20
5696.00,84.19
5695.00,84.18
5694.00,84.17
5693.00,84.16
5692.00,84.15
5691.00,84.13
5690.00,84.12
5689.00,84.11
5688.00,84.10
5687.00,84.08
5686.00,84.07
5685.00,84.05
5684.00,84.04
5683.00,84.03
5682.00,84.02
5681.00,84.01
5680.00,84.00
5679.00,83.99
5678.00,83.97
5677.00,83.96
5676.00,83.96
5675.00,83.95
5674.00,83.94
5673.00,83.93
5672.00,83.93
5671.00,83.92
5670.00,83.90
5669.00,83.90
5668.00,83.89
5667.00,83.88
5666.00,83.86
5665.00,83.85
5664.00,83.84
5663.00,83.82
5662.00,83.81
5661.00,83.80
5660.00,83.79
5659.00,83.79
5658.00,83.77
5657.00,83.76
5656.00,83.75
5655.00,83.74
5654.00,83.73
5653.00,83.72
5652.00,83.71
5651.00,83.70
5650.00,83.68
5649.00,83.67
5648.00,83.67
5647.00,83.66
5646.00,83.65
5645.00,83.64
5644.00,83.64
5643.00,83.63
5642.00,83.62
5641.00,83.61
5640.00,83.60
5639.00,83.59
5638.00,83.57
5637.00,83.57
5636.00,83.56
5635.00,83.55
5634.00,83.54
5633.00,83.53
5632.00,83.52
5631.00,83.51
5630.00,83.50
5629.00,83.49
5628.00,83.49
5627.00,83.48
5626.00,83.47
5625.00,83.47
5624.00,83.46
5623.00,83.45
5622.00,83.44
5621.00,83.43
5620.00,83.43
5619.00,83.42
5618.00,83.40
5617.00,83.40
5616.00,83.39
5615.00,83.38
5614.00,83.37
5613.00,83.36
5612.00,83.36
5611.00,83.35
5610.00,83.33
5609.00,83.32
5608.00,83.32
5607.00,83.31
5606.00,83.30
5605.00,83.29
5604.00,83.28
5603.00,83.27
5602.00,83.26
5601.00,83.26
5600.00,83.25
5599.00,83.24
5598.00,83.23
5597.00,83.22
5596.00,83.22
5595.00,83.21
5594.00,83.19
5593.00,83.18
5592.00,83.17
5591.00,83.16
5590.00,83.15
5589.00,83.14
5588.00,83.13
5587.00,83.12
5586.00,83.11
5585.00,83.10
5584.00,83.09
5583.00,83.08
5582.00,83.07
5581.00,83.06
5580.00,83.05
5579.00,83.04
5578.00,83.03
5577.00,83.02
5576.00,83.01
5575.00,83.00
5574.00,82.99
5573.00,82.98
5572.00,82.97
5571.00,82.96
5570.00,82.94
5569.00,82.93
5568.00,82.92
5567.00,82.91
5566.00,82.90
5565.00,82.90
5564.00,82.89
5563.00,82.88
5562.00,82.87
5561.00,82.86
5560.00,82.85
5559.00,82.83
5558.00,82.82
5557.00,82.81
5556.00,82.80
5555.00,82.79
5554.00,82.77
5553.00,82.77
5552.00,82.76
5551.00,82.75
5550.00,82.74
5549.00,82.73
5548.00,82.72
5547.00,82.70
5546.00,82.69
5545.00,82.67
5544.00,82.67
5543.00,82.66
5542.00,82.65
5541.00,82.65
5540.00,82.65
5539.00,82.64
5538.00,82.63
5537.00,82.63
5536.00,82.62
5535.00,82.61
5534.00,82.60
5533.00,82.59
5532.00,82.58
5531.00,82.57
5530.00,82.56
5529.00,82.55
5528.00,82.54
5527.00,82.53
5526.00,82.52
5525.00,82.51
5524.00,82.51
5523.00,82.50
5522.00,82.49
5521.00,82.48
5520.00,82.47
5519.00,82.46
5518.00,82.45
5517.00,82.44
5516.00,82.43
5515.00,82.42
5514.00,82.41
5513.00,82.40
5512.00,82.39
5511.00,82.38
5510.00,82.37
5509.00,82.36
5508.00,82.36
5507.00,82.35
5506.00,82.34
5505.00,82.33
5504.00,82.32
5503.00,82.31
5502.00,82.31
5501.00,82.30
5500.00,82.29
5499.00,82.28
5498.00,82.27
5497.00,82.26
5496.00,82.25
5495.00,82.24
5494.00,82.23
5493.00,82.22
5492.00,82.21
5491.00,82.20
5490.00,82.19
5489.00,82.18
5488.00,82.18
5487.00,82.17
5486.00,82.16
5485.00,82.15
5484.00,82.15
5483.00,82.14
5482.00,82.13
5481.00,82.12
5480.00,82.11
5479.00,82.10
5478.00,82.09
5477.00,82.07
5476.00,82.06
5475.00,82.05
5474.00,82.04
5473.00,82.03
5472.00,82.03
5471.00,82.02
5470.00,82.01
5469.00,82.00
5468.00,81.99
5467.00,81.98
5466.00,81.97
5465.00,81.96
5464.00,81.95
5463.00,81.94
5462.00,81.92
5461.00,81.92
5460.00,81.91
5459.00,81.91
5458.00,81.90
5457.00,81.90
5456.00,81.89
5455.00,81.89
5454.00,81.88
5453.00,81.87
5452.00,81.86
5451.00,81.85
5450.00,81.84
5449.00,81.83
5448.00,81.82
5447.00,81.81
5446.00,81.80
5445.00,81.79
5444.00,81.79
5443.00,81.78
5442.00,81.77
5441.00,81.76
5440.00,81.76
5439.00,81.75
5438.00,81.74
5437.00,81.73
5436.00,81.73
5435.00,81.72
5434.00,81.70
5433.00,81.69
5432.00,81.68
5431.00,81.66
5430.00,81.65
5429.00,81.64
5428.00,81.64
5427.00,81.64
5426.00,81.63
5425.00,81.62
5424.00,81.62
5423.00,81.61
5422.00,81.60
5421.00,81.60
5420.00,81.59
5419.00,81.58
5418.00,81.57
5417.00,81.55
5416.00,81.53
5415.00,81.52
5414.00,81.50
5413.00,81.49
5412.00,81.48
5411.00,81.47
5410.00,81.47
5409.00,81.46
5408.00,81.46
5407.00,81.46
5406.00,81.45
5405.00,81.45
5404.00,81.44
5403.00,81.44
5402.00,81.42
5401.00,81.41
5400.00,81.40
5399.00,81.39
5398.00,81.38
5397.00,81.37
5396.00,81.36
5395.00,81.35
5394.00,81.33
5393.00,81.32
5392.00,81.31
5391.00,81.31
5390.00,81.29
5389.00,81.29
5388.00,81.28
5387.00,81.27
5386.00,81.26
5385.00,81.25
5384.00,81.25
5383.00,81.24
5382.00,81.23
5381.00,81.21
5380.00,81.21
5379.00,81.20
5378.00,81.18
5377.00,81.17
5376.00,81.17
5375.00,81.15
5374.00,81.14
5373.00,81.14
5372.00,81.13
5371.00,81.12
5370.00,81.12
5369.00,81.11
5368.00,81.10
5367.00,81.10
5366.00,81.09
5365.00,81.08
5364.00,81.07
5363.00,81.05
5362.00,81.04
5361.00,81.04
5360.00,81.03
5359.00,81.02
5358.00,81.01
5357.00,81.01
5356.00,81.00
5355.00,80.98
5354.00,80.97
5353.00,80.96
5352.00,80.96
5351.00,80.95
5350.00,80.94
5349.00,80.93
5348.00,80.92
5347.00,80.91
5346.00,80.90
5345.00,80.89
5344.00,80.89
5343.00,80.88
5342.00,80.87
5341.00,80.86
5340.00,80.86
5339.00,80.85
5338.00,80.84
5337.00,80.83
5336.00,80.82
5335.00,80.81
5334.00,80.80
5333.00,80.79
5332.00,80.78
5331.00,80.78
5330.00,80.77
5329.00,80.76
5328.00,80.76
5327.00,80.75
5326.00,80.74
5325.00,80.74
5324.00,80.74
5323.00,80.73
5322.00,80.72
5321.00,80.71
5320.00,80.70
5319.00,80.69
5318.00,80.69
5317.00,80.68
5316.00,80.67
5315.00,80.66
5314.00,80.65
5313.00,80.64
5312.00,80.63
5311.00,80.61
5310.00,80.60
5309.00,80.59
5308.00,80.59
5307.00,80.58
5306.00,80.57
5305.00,80.56
5304.00,80.55
5303.00,80.54
5302.00,80.53
5301.00,80.52
5300.00,80.52
5299.00,80.51
5298.00,80.49
5297.00,80.48
5296.00,80.47
5295.00,80.46
5294.00,80.45
5293.00,80.44
5292.00,80.43
5291.00,80.42
5290.00,80.41
5289.00,80.40
5288.00,80.39
5287.00,80.38
5286.00,80.37
5285.00,80.37
5284.00,80.36
5283.00,80.35
5282.00,80.34
5281.00,80.34
5280.00,80.33
5279.00,80.32
5278.00,80.32
5277.00,80.31
5276.00,80.29
5275.00,80.28
5274.00,80.27
5273.00,80.26
5272.00,80.25
5271.00,80.24
5270.00,80.24
5269.00,80.23
5268.00,80.22
5267.00,80.21
5266.00,80.19
5265.00,80.18
5264.00,80.17
5263.00,80.16
5262.00,80.15
5261.00,80.15
5260.00,80.14
5259.00,80.13
5258.00,80.12
5257.00,80.11
5256.00,80.11
5255.00,80.10
5254.00,80.09
5253.00,80.07
5252.00,80.06
5251.00,80.05
5250.00,80.04
5249.00,80.03
5248.00,80.02
5247.00,80.02
5246.00,80.01
5245.00,79.99
5244.00,79.99
5243.00,79.98
5242.00,79.96
5241.00,79.95
5240.00,79.95
5239.00,79.94
5238.00,79.93
5237.00,79.93
5236.00,79.92
5235.00,79.91
5234.00,79.90
5233.00,79.88
5232.00,79.87
5231.00,79.86
5230.00,79.84
5229.00,79.83
5228.00,79.82
5227.00,79.80
5226.00,79.79
5225.00,79.78
5224.00,79.78
5223.00,79.77
5222.00,79.76
5221.00,79.75
5220.00,79.74
5219.00,79.74
5218.00,79.73
5217.00,79.72
5216.00,79.71
5215.00,79.70
5214.00,79.68
5213.00,79.67
5212.00,79.65
5211.00,79.64
5210.00,79.62
5209.00,79.61
5208.00,79.60
5207.00,79.60
5206.00,79.59
5205.00,79.58
5204.00,79.57
5203.00,79.56
5202.00,79.54
5201.00,79.53
5200.00,79.53
5199.00,79.52
5198.00,79.51
5197.00,79.50
5196.00,79.49
5195.00,79.48
5194.00,79.46
5193.00,79.45
5192.00,79.44
5191.00,79.43
5190.00,79.42
5189.00,79.41
5188.00,79.40
5187.00,79.39
5186.00,79.38
5185.00,79.37
5184.00,79.36
5183.00,79.35
5182.00,79.34
5181.00,79.33
5180.00,79.32
5179.00,79.32
5178.00,79.31
5177.00,79.30
5176.00,79.29
5175.00,79.28
5174.00,79.27
5173.00,79.26
5172.00,79.25
5171.00,79.24
5170.00,79.23
5169.00,79.21
5168.00,79.20
5167.00,79.19
5166.00,79.18
5165.00,79.17
5164.00,79.16
5163.00,79.15
5162.00,79.14
5161.00,79.13
5160.00,79.12
5159.00,79.11
5158.00,79.10
5157.00,79.09
5156.00,79.08
5155.00,79.07
5154.00,79.06
5153.00,79.05
5152.00,79.04
5151.00,79.03
5150.00,79.02
5149.00,79.01
5148.00,79.00
5147.00,78.99
5146.00,78.98
5145.00,78.97
5144.00,78.96
5143.00,78.95
5142.00,78.94
5141.00,78.94
5140.00,78.93
5139.00,78.92
5138.00,78.91
5137.00,78.89
5136.00,78.88
5135.00,78.87
5134.00,78.86
5133.00,78.84
5132.00,78.83
5131.00,78.82
5130.00,78.81
5129.00,78.80
5128.00,78.80
5127.00,78.79
5126.00,78.78
5125.00,78.77
5124.00,78.76
5123.00,78.75
5122.00,78.73
5121.00,78.72
5120.00,78.71
5119.00,78.69
5118.00,78.68
5117.00,78.66
5116.00,78.65
5115.00,78.63
5114.00,78.62
5113.00,78.60
5112.00,78.58
5111.00,78.57
5110.00,78.55
5109.00,78.54
5108.00,78.52
5107.00,78.51
5106.00,78.50
5105.00,78.49
5104.00,78.48
5103.00,78.48
5102.00,78.47
5101.00,78.46
5100.00,78.46
5099.00,78.45
5098.00,78.44
5097.00,78.44
5096.00,78.45
5095.00,78.45
5094.00,78.44
5093.00,78.42
5092.00,78.40
5091.00,78.38
5090.00,78.36
5089.00,78.35
5088.00,78.33
5087.00,78.32
5086.00,78.30
5085.00,78.29
5084.00,78.28
5083.00,78.27
5082.00,78.25
5081.00,78.25
5080.00,78.24
5079.00,78.23
5078.00,78.22
5077.00,78.21
5076.00,78.20
5075.00,78.20
5074.00,78.19
5073.00,78.18
5072.00,78.17
5071.00,78.16
5070.00,78.15
5069.00,78.14
5068.00,78.13
5067.00,78.12
5066.00,78.11
5065.00,78.10
5064.00,78.08
5063.00,78.07
5062.00,78.06
5061.00,78.05
5060.00,78.04
5059.00,78.03
5058.00,78.02
5057.00,78.01
5056.00,78.00
5055.00,77.98
5054.00,77.97
5053.00,77.96
5052.00,77.95
5051.00,77.94
5050.00,77.92
5049.00,77.91
5048.00,77.90
5047.00,77.89
5046.00,77.88
5045.00,77.87
5044.00,77.85
5043.00,77.84
5042.00,77.83
5041.00,77.82
5040.00,77.81
5039.00,77.80
5038.00,77.78
5037.00,77.77
5036.00,77.76
5035.00,77.74
5034.00,77.72
5033.00,77.71
5032.00,77.70
5031.00,77.69
5030.00,77.68
5029.00,77.67
5028.00,77.66
5027.00,77.64
5026.00,77.63
5025.00,77.62
5024.00,77.61
5023.00,77.59
5022.00,77.58
5021.00,77.57
5020.00,77.56
5019.00,77.54
5018.00,77.53
5017.00,77.52
5016.00,77.51
5015.00,77.50
5014.00,77.49
5013.00,77.48
5012.00,77.47
5011.00,77.46
5010.00,77.44
5009.00,77.43
5008.00,77.43
5007.00,77.42
5006.00,77.41
5005.00,77.40
5004.00,77.40
5003.00,77.39
5002.00,77.38
5001.00,77.37
5000.00,77.36
4999.00,77.35
4998.00,77.33
4997.00,77.31
4996.00,77.29
4995.00,77.27
4994.00,77.24
4993.00,77.22
4992.00,77.19
4991.00,77.17
4990.00,77.13
4989.00,77.12
4988.00,77.08
4987.00,77.11
4986.00,77.19
4985.00,77.16
4984.00,77.16
4983.00,77.14
4982.00,77.13
4981.00,77.12
4980.00,77.11
4979.00,77.10
4978.00,77.09
4977.00,77.08
4976.00,77.07
4975.00,77.06
4974.00,77.04
4973.00,77.03
4972.00,77.02
4971.00,77.01
4970.00,77.00
4969.00,76.98
4968.00,76.97
4967.00,76.96
4966.00,76.95
4965.00,76.94
4964.00,76.92
4963.00,76.92
4962.00,76.87
4961.00,76.79
4960.00,76.80
4959.00,76.79
4958.00,76.79
4957.00,76.78
4956.00,76.77
4955.00,76.76
4954.00,76.76
4953.00,76.75
4952.00,76.75
4951.00,76.74
4950.00,76.74
4949.00,76.73
4948.00,76.72
4947.00,76.72
4946.00,76.71
4945.00,76.70
4944.00,76.69
4943.00,76.69
4942.00,76.68
4941.00,76.67
4940.00,76.66
4939.00,76.64
4938.00,76.63
4937.00,76.62
4936.00,76.61
4935.00,76.60
4934.00,76.59
4933.00,76.58
4932.00,76.57
4931.00,76.56
4930.00,76.54
4929.00,76.53
4928.00,76.52
4927.00,76.51
4926.00,76.50
4925.00,76.49
4924.00,76.48
4923.00,76.46
4922.00,76.45
4921.00,76.44
4920.00,76.43
4919.00,76.42
4918.00,76.40
4917.00,76.39
4916.00,76.38
4915.00,76.37
4914.00,76.36
4913.00,76.35
4912.00,76.34
4911.00,76.33
4910.00,76.31
4909.00,76.30
4908.00,76.30
4907.00,76.28
4906.00,76.27
4905.00,76.26
4904.00,76.25
4903.00,76.24
4902.00,76.22
4901.00,76.21
4900.00,76.20
4899.00,76.19
4898.00,76.18
4897.00,76.18
4896.00,76.17
4895.00,76.16
4894.00,76.14
4893.00,76.13
4892.00,76.12
4891.00,76.11
4890.00,76.10
4889.00,76.09
4888.00,76.08
4887.00,76.07
4886.00,76.05
4885.00,76.04
4884.00,76.03
4883.00,76.02
4882.00,76.01
4881.00,76.00
4880.00,75.99
4879.00,75.98
4878.00,75.96
4877.00,75.95
4876.00,75.94
4875.00,75.93
4874.00,75.92
4873.00,75.91
4872.00,75.90
4871.00,75.89
4870.00,75.87
4869.00,75.86
4868.00,75.85
4867.00,75.83
4866.00,75.82
4865.00,75.80
4864.00,75.79
4863.00,75.78
4862.00,75.76
4861.00,75.75
4860.00,75.74
4859.00,75.73
4858.00,75.72
4857.00,75.71
4856.00,75.70
4855.00,75.69
4854.00,75.69
4853.00,75.68
4852.00,75.68
4851.00,75.67
4850.00,75.67
4849.00,75.66
4848.00,75.65
4847.00,75.63
4846.00,75.61
4845.00,75.59
4844.00,75.57
4843.00,75.56
4842.00,75.55
4841.00,75.54
4840.00,75.53
4839.00,75.52
4838.00,75.51
4837.00,75.50
4836.00,75.49
4835.00,75.48
4834.00,75.47
4833.00,75.46
4832.00,75.46
4831.00,75.45
4830.00,75.44
4829.00,75.43
4828.00,75.43
4827.00,75.42
4826.00,75.40
4825.00,75.40
4824.00,75.39
4823.00,75.39
4822.00,75.38
4821.00,75.38
4820.00,75.37
4819.00,75.36
4818.00,75.35
4817.00,75.34
4816.00,75.33
4815.00,75.32
4814.00,75.31
4813.00,75.30
4812.00,75.30
4811.00,75.29
4810.00,75.28
4809.00,75.27
4808.00,75.26
4807.00,75.24
4806.00,75.23
4805.00,75.22
4804.00,75.21
4803.00,75.20
4802.00,75.19
4801.00,75.19
4800.00,75.18
4799.00,75.17
4798.00,75.16
4797.00,75.15
4796.00,75.14
4795.00,75.13
4794.00,75.12
4793.00,75.11
4792.00,75.10
4791.00,75.09
4790.00,75.09
4789.00,75.08
4788.00,75.07
4787.00,75.06
4786.00,75.05
4785.00,75.04
4784.00,75.03
4783.00,75.02
4782.00,75.01
4781.00,75.00
4780.00,75.00
4779.00,74.99
4778.00,74.98
4777.00,74.97
4776.00,74.97
4775.00,74.96
4774.00,74.95
4773.00,74.95
4772.00,74.94
4771.00,74.94
4770.00,74.93
4769.00,74.92
4768.00,74.92
4767.00,74.91
4766.00,74.91
4765.00,74.90
4764.00,74.90
4763.00,74.90
4762.00,74.90
4761.00,74.89
4760.00,74.90
4759.00,74.90
4758.00,74.90
4757.00,74.90
4756.00,74.90
4755.00,74.89
4754.00,74.89
4753.00,74.89
4752.00,74.89
4751.00,74.89
4750.00,74.89
4749.00,74.90
4748.00,74.90
4747.00,74.89
4746.00,74.89
4745.00,74.89
4744.00,74.89
4743.00,74.89
4742.00,74.89
4741.00,74.89
4740.00,74.89
4739.00,74.89
4738.00,74.88
4737.00,74.88
4736.00,74.88
4735.00,74.87
4734.00,74.87
4733.00,74.86
4732.00,74.86
4731.00,74.85
4730.00,74.84
4729.00,74.84
4728.00,74.83
4727.00,74.82
4726.00,74.82
4725.00,74.81
4724.00,74.80
4723.00,74.79
4722.00,74.79
4721.00,74.78
4720.00,74.77
4719.00,74.76
4718.00,74.75
4717.00,74.74
4716.00,74.73
4715.00,74.72
4714.00,74.70
4713.00,74.69
4712.00,74.67
4711.00,74.66
4710.00,74.65
4709.00,74.63
4708.00,74.62
4707.00,74.60
4706.00,74.58
4705.00,74.56
4704.00,74.54
4703.00,74.52
4702.00,74.50
4701.00,74.47
4700.00,74.45
4699.00,74.43
4698.00,74.41
4697.00,74.41
4696.00,74.41
4695.00,74.40
4694.00,74.40
4693.00,74.40
4692.00,74.40
4691.00,74.40
4690.00,74.40
4689.00,74.39
4688.00,74.38
4687.00,74.37
4686.00,74.36
4685.00,74.36
4684.00,74.35
4683.00,74.34
4682.00,74.32
4681.00,74.31
4680.00,74.30
4679.00,74.29
4678.00,74.27
4677.00,74.26
4676.00,74.24
4675.00,74.23
4674.00,74.21
4673.00,74.20
4672.00,74.19
4671.00,74.17
4670.00,74.15
4669.00,74.14
4668.00,74.13
4667.00,74.11
4666.00,74.10
4665.00,74.08
4664.00,74.07
4663.00,74.05
4662.00,74.03
4661.00,74.02
4660.00,74.00
4659.00,73.98
4658.00,73.96
4657.00,73.94
4656.00,73.92
4655.00,73.90
4654.00,73.88
4653.00,73.87
4652.00,73.85
4651.00,73.83
4650.00,73.81
4649.00,73.79
4648.00,73.77
4647.00,73.75
4646.00,73.73
4645.00,73.71
4644.00,73.69
4643.00,73.66
4642.00,73.64
4641.00,73.61
4640.00,73.59
4639.00,73.56
4638.00,73.53
4637.00,73.51
4636.00,73.48
4635.00,73.45
4634.00,73.42
4633.00,73.39
4632.00,73.37
4631.00,73.34
4630.00,73.31
4629.00,73.28
4628.00,73.26
4627.00,73.22
4626.00,73.19
4625.00,73.16
4624.00,73.13
4623.00,73.10
4622.00,73.07
4621.00,73.04
4620.00,73.01
4619.00,72.97
4618.00,72.94
4617.00,72.91
4616.00,72.88
4615.00,72.85
4614.00,72.81
4613.00,72.78
4612.00,72.74
4611.00,72.71
4610.00,72.68
4609.00,72.64
4608.00,72.61
4607.00,72.58
4606.00,72.54
4605.00,72.51
4604.00,72.47
4603.00,72.44
4602.00,72.40
4601.00,72.37
4600.00,72.33
4599.00,72.30
4598.00,72.26
4597.00,72.23
4596.00,72.19
4595.00,72.16
4594.00,72.13
4593.00,72.09
4592.00,72.05
4591.00,72.02
4590.00,71.98
4589.00,71.94
4588.00,71.91
4587.00,71.88
4586.00,71.84
4585.00,71.80
4584.00,71.77
4583.00,71.73
4582.00,71.70
4581.00,71.66
4580.00,71.63
4579.00,71.59
4578.00,71.56
4577.00,71.52
4576.00,71.49
4575.00,71.45
4574.00,71.42
4573.00,71.39
4572.00,71.35
4571.00,71.32
4570.00,71.29
4569.00,71.25
4568.00,71.22
4567.00,71.19
4566.00,71.16
4565.00,71.13
4564.00,71.10
4563.00,71.07
4562.00,71.04
4561.00,71.01
4560.00,70.98
4559.00,70.95
4558.00,70.92
4557.00,70.89
4556.00,70.86
4555.00,70.83
4554.00,70.80
4553.00,70.78
4552.00,70.75
4551.00,70.72
4550.00,70.69
4549.00,70.66
4548.00,70.63
4547.00,70.60
4546.00,70.57
4545.00,70.55
4544.00,70.52
4543.00,70.49
4542.00,70.46
4541.00,70.43
4540.00,70.41
4539.00,70.38
4538.00,70.35
4537.00,70.32
4536.00,70.30
4535.00,70.27
4534.00,70.24
4533.00,70.21
4532.00,70.18
4531.00,70.16
4530.00,70.13
4529.00,70.11
4528.00,70.08
4527.00,70.05
4526.00,70.02
4525.00,69.99
4524.00,69.97
4523.00,69.94
4522.00,69.91
4521.00,69.89
4520.00,69.86
4519.00,69.84
4518.00,69.81
4517.00,69.78
4516.00,69.76
4515.00,69.73
4514.00,69.70
4513.00,69.68
4512.00,69.65
4511.00,69.63
4510.00,69.60
4509.00,69.57
4508.00,69.55
4507.00,69.52
4506.00,69.50
4505.00,69.47
4504.00,69.45
4503.00,69.42
4502.00,69.39
4501.00,69.37
4500.00,69.34
4499.00,69.32
4498.00,69.29
4497.00,69.26
4496.00,69.24
4495.00,69.21
4494.00,69.19
4493.00,69.16
4492.00,69.14
4491.00,69.11
4490.00,69.09
4489.00,69.06
4488.00,69.04
4487.00,69.01
4486.00,68.99
4485.00,68.96
4484.00,68.94
4483.00,68.91
4482.00,68.89
4481.00,68.87
4480.00,68.84
4479.00,68.82
4478.00,68.80
4477.00,68.77
4476.00,68.75
4475.00,68.73
4474.00,68.70
4473.00,68.68
4472.00,68.66
4471.00,68.64
4470.00,68.62
4469.00,68.60
4468.00,68.57
4467.00,68.55
4466.00,68.53
4465.00,68.51
4464.00,68.48
4463.00,68.46
4462.00,68.44
4461.00,68.42
4460.00,68.40
4459.00,68.38
4458.00,68.36
4457.00,68.34
4456.00,68.32
4455.00,68.30
4454.00,68.28
4453.00,68.26
4452.00,68.24
4451.00,68.22
4450.00,68.20
4449.00,68.18
4448.00,68.16
4447.00,68.14
4446.00,68.12
4445.00,68.10
4444.00,68.08
4443.00,68.06
4442.00,68.04
4441.00,68.02
4440.00,68.00
4439.00,67.99
4438.00,67.96
4437.00,67.95
4436.00,67.93
4435.00,67.91
4434.00,67.89
4433.00,67.87
4432.00,67.85
4431.00,67.83
4430.00,67.81
4429.00,67.80
4428.00,67.78
4427.00,67.76
4426.00,67.74
4425.00,67.73
4424.00,67.71
4423.00,67.69
4422.00,67.67
4421.00,67.65
4420.00,67.64
4419.00,67.62
4418.00,67.60
4417.00,67.58
4416.00,67.56
4415.00,67.55
4414.00,67.53
4413.00,67.51
4412.00,67.50
4411.00,67.48
4410.00,67.46
4409.00,67.44
4408.00,67.43
4407.00,67.41
4406.00,67.39
4405.00,67.37
4404.00,67.36
4403.00,67.34
4402.00,67.32
4401.00,67.30
4400.00,67.29
4399.00,67.27
4398.00,67.26
4397.00,67.24
4396.00,67.22
4395.00,67.20
4394.00,67.19
4393.00,67.17
4392.00,67.15
4391.00,67.14
4390.00,67.12
4389.00,67.11
4388.00,67.09
4387.00,67.08
4386.00,67.06
4385.00,67.04
4384.00,67.03
4383.00,67.02
4382.00,67.00
4381.00,66.99
4380.00,66.97
4379.00,66.96
4378.00,66.95
4377.00,66.93
4376.00,66.92
4375.00,66.90
4374.00,66.89
4373.00,66.87
4372.00,66.86
4371.00,66.85
4370.00,66.84
4369.00,66.82
4368.00,66.81
4367.00,66.79
4366.00,66.78
4365.00,66.76
4364.00,66.74
4363.00,66.73
4362.00,66.72
4361.00,66.70
4360.00,66.69
4359.00,66.68
4358.00,66.66
4357.00,66.65
4356.00,66.64
4355.00,66.63
4354.00,66.62
4353.00,66.60
4352.00,66.59
4351.00,66.58
4350.00,66.56
4349.00,66.55
4348.00,66.53
4347.00,66.52
4346.00,66.51
4345.00,66.49
4344.00,66.48
4343.00,66.47
4342.00,66.46
4341.00,66.44
4340.00,66.43
4339.00,66.42
4338.00,66.40
4337.00,66.39
4336.00,66.38
4335.00,66.36
4334.00,66.35
4333.00,66.34
4332.00,66.33
4331.00,66.32
4330.00,66.30
4329.00,66.29
4328.00,66.28
4327.00,66.26
4326.00,66.25
4325.00,66.24
4324.00,66.23
4323.00,66.21
4322.00,66.20
4321.00,66.19
4320.00,66.17
4319.00,66.16
4318.00,66.15
4317.00,66.14
4316.00,66.12
4315.00,66.11
4314.00,66.10
4313.00,66.08
4312.00,66.07
4311.00,66.06
4310.00,66.05
4309.00,66.03
4308.00,66.02
4307.00,66.01
4306.00,66.00
4305.00,65.99
4304.00,65.97
4303.00,65.96
4302.00,65.95
4301.00,65.94
4300.00,65.93
4299.00,65.92
4298.00,65.91
4297.00,65.90
4296.00,65.89
4295.00,65.88
4294.00,65.86
4293.00,65.85
4292.00,65.84
4291.00,65.83
4290.00,65.82
4289.00,65.81
4288.00,65.80
4287.00,65.78
4286.00,65.77
4285.00,65.76
4284.00,65.75
4283.00,65.74
4282.00,65.73
4281.00,65.72
4280.00,65.71
4279.00,65.69
4278.00,65.68
4277.00,65.67
4276.00,65.66
4275.00,65.65
4274.00,65.64
4273.00,65.63
4272.00,65.62
4271.00,65.60
4270.00,65.59
4269.00,65.58
4268.00,65.57
4267.00,65.56
4266.00,65.54
4265.00,65.53
4264.00,65.52
4263.00,65.51
4262.00,65.50
4261.00,65.49
4260.00,65.48
4259.00,65.46
4258.00,65.45
4257.00,65.44
4256.00,65.43
4255.00,65.42
4254.00,65.41
4253.00,65.39
4252.00,65.38
4251.00,65.37
4250.00,65.36
4249.00,65.35
4248.00,65.33
4247.00,65.32
4246.00,65.31
4245.00,65.30
4244.00,65.29
4243.00,65.28
4242.00,65.26
4241.00,65.25
4240.00,65.24
4239.00,65.23
4238.00,65.22
4237.00,65.21
4236.00,65.19
4235.00,65.18
4234.00,65.17
4233.00,65.15
4232.00,65.14
4231.00,65.13
4230.00,65.11
4229.00,65.10
4228.00,65.09
4227.00,65.07
4226.00,65.06
4225.00,65.04
4224.00,65.03
4223.00,65.02
4222.00,65.00
4221.00,64.99
4220.00,64.97
4219.00,64.96
4218.00,64.94
4217.00,64.93
4216.00,64.92
4215.00,64.91
4214.00,64.89
4213.00,64.88
4212.00,64.87
4211.00,64.85
4210.00,64.84
4209.00,64.83
4208.00,64.81
4207.00,64.80
4206.00,64.79
4205.00,64.78
4204.00,64.77
4203.00,64.75
4202.00,64.74
4201.00,64.72
4200.00,64.71
4199.00,64.70
4198.00,64.68
4197.00,64.67
4196.00,64.65
4195.00,64.64
4194.00,64.63
4193.00,64.61
4192.00,64.60
4191.00,64.58
4190.00,64.57
4189.00,64.55
4188.00,64.54
4187.00,64.52
4186.00,64.51
4185.00,64.50
4184.00,64.48
4183.00,64.47
4182.00,64.45
4181.00,64.44
4180.00,64.43
4179.00,64.41
4178.00,64.40
4177.00,64.38
4176.00,64.36
4175.00,64.35
4174.00,64.33
4173.00,64.32
4172.00,64.30
4171.00,64.29
4170.00,64.27
4169.00,64.26
4168.00,64.24
4167.00,64.23
4166.00,64.21
4165.00,64.20
4164.00,64.18
4163.00,64.17
4162.00,64.15
4161.00,64.13
4160.00,64.12
4159.00,64.10
4158.00,64.08
4157.00,64.07
4156.00,64.05
4155.00,64.03
4154.00,64.02
4153.00,64.00
4152.00,63.98
4151.00,63.97
4150.00,63.95
4149.00,63.93
4148.00,63.91
4147.00,63.90
4146.00,63.88
4145.00,63.86
4144.00,63.84
4143.00,63.83
4142.00,63.81
4141.00,63.79
4140.00,63.77
4139.00,63.75
4138.00,63.73
4137.00,63.71
4136.00,63.69
4135.00,63.67
4134.00,63.65
4133.00,63.63
4132.00,63.62
4131.00,63.60
4130.00,63.58
4129.00,63.56
4128.00,63.54
4127.00,63.52
4126.00,63.50
4125.00,63.48
4124.00,63.46
4123.00,63.44
4122.00,63.42
4121.00,63.40
4120.00,63.38
4119.00,63.36
4118.00,63.34
4117.00,63.32
4116.00,63.30
4115.00,63.28
4114.00,63.26
4113.00,63.24
4112.00,63.22
4111.00,63.20
4110.00,63.18
4109.00,63.15
4108.00,63.13
4107.00,63.11
4106.00,63.09
4105.00,63.07
4104.00,63.05
4103.00,63.03
4102.00,63.01
4101.00,62.98
4100.00,62.96
4099.00,62.94
4098.00,62.91
4097.00,62.89
4096.00,62.87
4095.00,62.85
4094.00,62.82
4093.00,62.80
4092.00,62.77
4091.00,62.75
4090.00,62.72
4089.00,62.70
4088.00,62.68
4087.00,62.65
4086.00,62.63
4085.00,62.60
4084.00,62.58
4083.00,62.56
4082.00,62.53
4081.00,62.50
4080.00,62.48
4079.00,62.45
4078.00,62.42
4077.00,62.40
4076.00,62.37
4075.00,62.34
4074.00,62.32
4073.00,62.29
4072.00,62.26
4071.00,62.23
4070.00,62.20
4069.00,62.18
4068.00,62.15
4067.00,62.12
4066.00,62.09
4065.00,62.06
4064.00,62.03
4063.00,62.00
4062.00,61.97
4061.00,61.94
4060.00,61.91
4059.00,61.87
4058.00,61.84
4057.00,61.81
4056.00,61.78
4055.00,61.74
4054.00,61.71
4053.00,61.68
4052.00,61.65
4051.00,61.61
4050.00,61.58
4049.00,61.54
4048.00,61.51
4047.00,61.47
4046.00,61.44
4045.00,61.40
4044.00,61.37
4043.00,61.33
4042.00,61.29
4041.00,61.26
4040.00,61.22
4039.00,61.18
4038.00,61.15
4037.00,61.11
4036.00,61.08
4035.00,61.04
4034.00,61.00
4033.00,60.96
4032.00,60.92
4031.00,60.89
4030.00,60.85
4029.00,60.81
4028.00,60.77
4027.00,60.73
4026.00,60.69
4025.00,60.65
4024.00,60.61
4023.00,60.57
4022.00,60.53
4021.00,60.49
4020.00,60.45
4019.00,60.41
4018.00,60.36
4017.00,60.32
4016.00,60.28
4015.00,60.24
4014.00,60.19
4013.00,60.15
4012.00,60.11
4011.00,60.06
4010.00,60.02
4009.00,59.98
4008.00,59.93
4007.00,59.89
4006.00,59.84
4005.00,59.80
4004.00,59.75
4003.00,59.71
4002.00,59.66
4001.00,59.61
4000.00,59.57
3999.00,59.52
3998.00,59.47
3997.00,59.43
3996.00,59.38
3995.00,59.33
3994.00,59.29
3993.00,59.24
3992.00,59.19
3991.00,59.14
3990.00,59.09
3989.00,59.04
3988.00,59.00
3987.00,58.95
3986.00,58.90
3985.00,58.85
3984.00,58.80
3983.00,58.75
3982.00,58.70
3981.00,58.65
3980.00,58.60
3979.00,58.55
3978.00,58.50
3977.00,58.45
3976.00,58.40
3975.00,58.34
3974.00,58.29
3973.00,58.24
3972.00,58.19
3971.00,58.14
3970.00,58.09
3969.00,58.04
3968.00,57.99
3967.00,57.93
3966.00,57.88
3965.00,57.83
3964.00,57.77
3963.00,57.72
3962.00,57.67
3961.00,57.61
3960.00,57.56
3959.00,57.51
3958.00,57.45
3957.00,57.40
3956.00,57.35
3955.00,57.29
3954.00,57.24
3953.00,57.18
3952.00,57.13
3951.00,57.08
3950.00,57.02
3949.00,56.97
3948.00,56.92
3947.00,56.87
3946.00,56.82
3945.00,56.77
3944.00,56.71
3943.00,56.66
3942.00,56.61
3941.00,56.55
3940.00,56.50
3939.00,56.44
3938.00,56.39
3937.00,56.34
3936.00,56.29
3935.00,56.23
3934.00,56.18
3933.00,56.12
3932.00,56.07
3931.00,56.02
3930.00,55.97
3929.00,55.91
3928.00,55.86
3927.00,55.81
3926.00,55.75
3925.00,55.70
3924.00,55.64
3923.00,55.59
3922.00,55.54
3921.00,55.48
3920.00,55.43
3919.00,55.37
3918.00,55.32
3917.00,55.27
3916.00,55.21
3915.00,55.16
3914.00,55.11
3913.00,55.06
3912.00,55.00
3911.00,54.95
3910.00,54.90
3909.00,54.85
3908.00,54.79
3907.00,54.73
3906.00,54.66
3905.00,54.61
3904.00,54.55
3903.00,54.50
3902.00,54.44
3901.00,54.39
3900.00,54.34
3899.00,54.30
3898.00,54.26
3897.00,54.21
3896.00,54.16
3895.00,54.10
3894.00,54.05
3893.00,53.99
3892.00,53.93
3891.00,53.88
3890.00,53.83
3889.00,53.77
3888.00,53.71
3887.00,53.65
3886.00,53.60
3885.00,53.56
3884.00,53.52
3883.00,53.46
3882.00,53.40
3881.00,53.35
3880.00,53.31
3879.00,53.27
3878.00,53.21
3877.00,53.15
3876.00,53.09
3875.00,53.03
3874.00,52.98
3873.00,52.93
3872.00,52.87
3871.00,52.80
3870.00,52.75
3869.00,52.70
3868.00,52.66
3867.00,52.61
3866.00,52.55
3865.00,52.51
3864.00,52.47
3863.00,52.43
3862.00,52.38
3861.00,52.33
3860.00,52.28
3859.00,52.23
3858.00,52.17
3857.00,52.10
3856.00,52.02
3855.00,51.93
3854.00,51.87
3853.00,51.83
3852.00,51.80
3851.00,51.77
3850.00,51.73
3849.00,51.69
3848.00,51.68
3847.00,51.66
3846.00,51.63
3845.00,51.58
3844.00,51.52
3843.00,51.46
3842.00,51.40
3841.00,51.33
3840.00,51.27
3839.00,51.22
3838.00,51.17
3837.00,51.13
3836.00,51.10
3835.00,51.05
3834.00,51.01
3833.00,50.96
3832.00,50.92
3831.00,50.89
3830.00,50.85
3829.00,50.80
3828.00,50.75
3827.00,50.70
3826.00,50.66
3825.00,50.61
3824.00,50.55
3823.00,50.49
3822.00,50.44
3821.00,50.40
3820.00,50.36
3819.00,50.30
3818.00,50.24
3817.00,50.19
3816.00,50.15
3815.00,50.13
3814.00,50.10
3813.00,50.06
3812.00,50.01
3811.00,49.97
3810.00,49.93
3809.00,49.88
3808.00,49.83
3807.00,49.77
3806.00,49.73
3805.00,49.68
3804.00,49.61
3803.00,49.55
3802.00,49.51
3801.00,49.48
3800.00,49.45
3799.00,49.41
3798.00,49.36
3797.00,49.32
3796.00,49.29
3795.00,49.26
3794.00,49.22
3793.00,49.17
3792.00,49.12
3791.00,49.08
3790.00,49.04
3789.00,48.99
3788.00,48.94
3787.00,48.89
3786.00,48.85
3785.00,48.80
3784.00,48.75
3783.00,48.71
3782.00,48.66
3781.00,48.61
3780.00,48.56
3779.00,48.52
3778.00,48.47
3777.00,48.42
3776.00,48.37
3775.00,48.32
3774.00,48.28
3773.00,48.23
3772.00,48.18
3771.00,48.13
3770.00,48.08
3769.00,48.03
3768.00,47.98
3767.00,47.93
3766.00,47.88
3765.00,47.84
3764.00,47.80
3763.00,47.75
3762.00,47.70
3761.00,47.64
3760.00,47.59
3759.00,47.55
3758.00,47.50
3757.00,47.45
3756.00,47.40
3755.00,47.35
3754.00,47.29
3753.00,47.24
3752.00,47.19
3751.00,47.16
3750.00,47.13
3749.00,47.12
3748.00,47.11
3747.00,47.11
3746.00,47.11
3745.00,47.13
3744.00,47.16
3743.00,47.19
3742.00,47.21
3741.00,47.19
3740.00,47.16
3739.00,47.11
3738.00,47.03
3737.00,46.90
3736.00,46.70
3735.00,46.50
3734.00,46.19
3733.00,46.08
3732.00,46.12
3731.00,46.04
3730.00,46.00
3729.00,45.93
3728.00,45.87
3727.00,45.82
3726.00,45.76
3725.00,45.70
3724.00,45.64
3723.00,45.57
3722.00,45.51
3721.00,45.44
3720.00,45.38
3719.00,45.31
3718.00,45.24
3717.00,45.16
3716.00,45.09
3715.00,45.01
3714.00,44.93
3713.00,44.85
3712.00,44.77
3711.00,44.70
3710.00,44.63
3709.00,44.56
3708.00,44.49
3707.00,44.43
3706.00,44.36
3705.00,44.29
3704.00,44.22
3703.00,44.14
3702.00,44.07
3701.00,43.99
3700.00,43.91
3699.00,43.82
3698.00,43.75
3697.00,43.64
3696.00,43.61
3695.00,43.43
3694.00,43.54
3693.00,42.77
3692.00,42.12
3691.00,42.36
3690.00,42.27
3689.00,42.35
3688.00,42.33
3687.00,42.35
3686.00,42.34
3685.00,42.32
3684.00,42.30
3683.00,42.28
3682.00,42.24
3681.00,42.18
3680.00,42.11
3679.00,42.02
3678.00,41.92
3677.00,41.81
3676.00,41.70
3675.00,41.60
3674.00,41.49
3673.00,41.38
3672.00,41.25
3671.00,41.13
3670.00,41.01
3669.00,40.90
3668.00,40.77
3667.00,40.63
3666.00,40.50
3665.00,40.36
3664.00,40.23
3663.00,40.10
3662.00,39.96
3661.00,39.81
3660.00,39.66
3659.00,39.51
3658.00,39.34
3657.00,39.17
3656.00,39.01
3655.00,38.85
3654.00,38.69
3653.00,38.52
3652.00,38.35
3651.00,38.18
3650.00,38.00
3649.00,37.82
3648.00,37.63
3647.00,37.46
3646.00,37.28
3645.00,37.12
3644.00,36.94
3643.00,36.77
3642.00,36.59
3641.00,36.39
3640.00,36.18
3639.00,35.95
3638.00,35.71
3637.00,35.45
3636.00,35.17
3635.00,34.87
3634.00,34.54
3633.00,34.20
3632.00,33.83
3631.00,33.43
3630.00,33.00
3629.00,32.55
3628.00,32.10
3627.00,31.65
3626.00,31.20
3625.00,30.75
3624.00,30.36
3623.00,29.89
3622.00,29.61
3621.00,28.97
3620.00,29.45
3619.00,29.67
3618.00,29.01
3617.00,28.68
3616.00,28.19
3615.00,27.79
3614.00,27.36
3613.00,26.97
3612.00,26.57
3611.00,26.17
3610.00,25.76
3609.00,25.34
3608.00,24.92
3607.00,24.49
3606.00,24.07
3605.00,23.64
3604.00,23.21
3603.00,22.78
3602.00,22.34
3601.00,21.90
3600.00,21.47
3599.00,21.02
3598.00,20.60
3597.00,20.13
3596.00,19.78
3595.00,19.01
3594.00,18.38
3593.00,18.09
3592.00,17.67
3591.00,17.33
3590.00,16.95
3589.00,16.59
3588.00,16.22
3587.00,15.85
3586.00,15.49
3585.00,15.13
3584.00,14.78
3583.00,14.43
3582.00,14.09
3581.00,13.75
3580.00,13.42
3579.00,13.09
3578.00,12.76
3577.00,12.44
3576.00,12.12
3575.00,11.81
3574.00,11.50
3573.00,11.20
3572.00,10.91
3571.00,10.63
3570.00,10.35
3569.00,10.08
3568.00,9.80
3567.00,9.54
3566.00,9.28
3565.00,9.03
3564.00,8.79
3563.00,8.56
3562.00,8.33
3561.00,8.11
3560.00,7.89
3559.00,7.68
3558.00,7.47
3557.00,7.27
3556.00,7.08
3555.00,6.89
3554.00,6.71
3553.00,6.53
3552.00,6.36
3551.00,6.19
3550.00,6.03
3549.00,5.87
3548.00,5.72
3547.00,5.57
3546.00,5.43
3545.00,5.29
3544.00,5.15
3543.00,5.02
3542.00,4.89
3541.00,4.77
3540.00,4.65
3539.00,4.53
3538.00,4.42
3537.00,4.31
3536.00,4.20
3535.00,4.10
3534.00,4.00
3533.00,3.90
3532.00,3.81
3531.00,3.72
3530.00,3.63
3529.00,3.54
3528.00,3.46
3527.00,3.38
3526.00,3.30
3525.00,3.22
3524.00,3.15
3523.00,3.07
3522.00,3.00
3521.00,2.94
3520.00,2.87
3519.00,2.81
3518.00,2.74
3517.00,2.68
3516.00,2.62
3515.00,2.57
3514.00,2.51
3513.00,2.46
3512.00,2.41
3511.00,2.36
3510.00,2.31
3509.00,2.26
3508.00,2.21
3507.00,2.17
3506.00,2.13
3505.00,2.08
3504.00,2.04
3503.00,2.00
3502.00,1.96
3501.00,1.92
3500.00,1.88
3499.00,1.85
3498.00,1.81
3497.00,1.78
3496.00,1.74
3495.00,1.71
3494.00,1.68
3493.00,1.65
3492.00,1.62
3491.00,1.59
3490.00,1.56
3489.00,1.53
3488.00,1.51
3487.00,1.48
3486.00,1.45
3485.00,1.43
3484.00,1.40
3483.00,1.38
3482.00,1.36
3481.00,1.34
3480.00,1.31
3479.00,1.29
3478.00,1.27
3477.00,1.25
3476.00,1.23
3475.00,1.21
3474.00,1.19
3473.00,1.17
3472.00,1.15
3471.00,1.13
3470.00,1.11
3469.00,1.10
3468.00,1.08
3467.00,1.07
3466.00,1.05
3465.00,1.04
3464.00,1.02
3463.00,1.00
3462.00,0.99
3461.00,0.97
3460.00,0.96
3459.00,0.95
3458.00,0.93
3457.00,0.92
3456.00,0.91
3455.00,0.89
3454.00,0.88
3453.00,0.87
3452.00,0.86
3451.00,0.84
3450.00,0.83
3449.00,0.82
3448.00,0.81
3447.00,0.80
3446.00,0.79
3445.00,0.78
3444.00,0.77
3443.00,0.76
3442.00,0.75
3441.00,0.74
3440.00,0.73
3439.00,0.72
3438.00,0.71
3437.00,0.70
3436.00,0.69
3435.00,0.69
3434.00,0.68
3433.00,0.67
3432.00,0.66
3431.00,0.65
3430.00,0.64
3429.00,0.63
3428.00,0.63
3427.00,0.62
3426.00,0.61
3425.00,0.60
3424.00,0.60
3423.00,0.59
3422.00,0.58
3421.00,0.58
3420.00,0.57
3419.00,0.56
3418.00,0.55
3417.00,0.55
3416.00,0.54
3415.00,0.54
3414.00,0.53
3413.00,0.53
3412.00,0.52
3411.00,0.51
3410.00,0.51
3409.00,0.50
3408.00,0.49
3407.00,0.49
3406.00,0.48
3405.00,0.48
3404.00,0.47
3403.00,0.47
3402.00,0.46
3401.00,0.46
3400.00,0.45
3399.00,0.45
3398.00,0.44
3397.00,0.44
3396.00,0.43
3395.00,0.43
3394.00,0.43
3393.00,0.42
3392.00,0.42
3391.00,0.41
3390.00,0.41
3389.00,0.40
3388.00,0.40
3387.00,0.39
3386.00,0.39
3385.00,0.38
3384.00,0.38
3383.00,0.38
3382.00,0.37
3381.00,0.37
3380.00,0.36
3379.00,0.36
3378.00,0.36
3377.00,0.35
3376.00,0.35
3375.00,0.35
3374.00,0.34
3373.00,0.34
3372.00,0.33
3371.00,0.33
3370.00,0.33
3369.00,0.32
3368.00,0.32
3367.00,0.32
3366.00,0.31
3365.00,0.31
3364.00,0.31
3363.00,0.30
3362.00,0.30
3361.00,0.30
3360.00,0.29
3359.00,0.29
3358.00,0.29
3357.00,0.29
3356.00,0.28
3355.00,0.28
3354.00,0.28
3353.00,0.27
3352.00,0.27
3351.00,0.27
3350.00,0.26
3349.00,0.26
3348.00,0.26
3347.00,0.26
3346.00,0.25
3345.00,0.25
3344.00,0.25
3343.00,0.24
3342.00,0.24
3341.00,0.24
3340.00,0.23
3339.00,0.23
3338.00,0.23
3337.00,0.23
3336.00,0.23
3335.00,0.22
3334.00,0.22
3333.00,0.22
3332.00,0.22
3331.00,0.21
3330.00,0.21
3329.00,0.21
3328.00,0.21
3327.00,0.21
3326.00,0.20
3325.00,0.20
3324.00,0.20
3323.00,0.19
3322.00,0.19
3321.00,0.19
3320.00,0.19
3319.00,0.19
3318.00,0.18
3317.00,0.18
3316.00,0.18
3315.00,0.18
3314.00,0.18
3313.00,0.17
3312.00,0.17
3311.00,0.17
3310.00,0.17
3309.00,0.17
3308.00,0.16
3307.00,0.16
3306.00,0.16
3305.00,0.16
3304.00,0.16
3303.00,0.16
3302.00,0.15
3301.00,0.15
3300.00,0.15
3299.00,0.15
3298.00,0.15
3297.00,0.15
3296.00,0.14
3295.00,0.14
3294.00,0.14
3293.00,0.14
3292.00,0.14
3291.00,0.14
3290.00,0.13
3289.00,0.13
3288.00,0.13
3287.00,0.13
3286.00,0.13
3285.00,0.12
3284.00,0.12
3283.00,0.12
3282.00,0.12
3281.00,0.12
3280.00,0.12
3279.00,0.12
3278.00,0.11
3277.00,0.11
3276.00,0.11
3275.00,0.11
3274.00,0.11
3273.00,0.11
3272.00,0.11
3271.00,0.11
3270.00,0.10
3269.00,0.10
3268.00,0.10
3267.00,0.10
3266.00,0.10
3265.00,0.10
3264.00,0.10
3263.00,0.10
3262.00,0.10
3261.00,0.09
3260.00,0.09
3259.00,0.09
3258.00,0.09
3257.00,0.09
3256.00,0.09
3255.00,0.09
3254.00,0.09
3253.00,0.08
3252.00,0.08
3251.00,0.08
3250.00,0.08
3249.00,0.08
3248.00,0.08
3247.00,0.08
3246.00,0.08
3245.00,0.07
3244.00,0.07
3243.00,0.07
3242.00,0.07
3241.00,0.07
3240.00,0.07
3239.00,0.07
3238.00,0.07
3237.00,0.07
3236.00,0.06
3235.00,0.06
3234.00,0.06
3233.00,0.06
3232.00,0.06
3231.00,0.06
3230.00,0.06
3229.00,0.06
3228.00,0.06
3227.00,0.06
3226.00,0.06
3225.00,0.06
3224.00,0.06
3223.00,0.06
3222.00,0.06
3221.00,0.06
3220.00,0.06
3219.00,0.06
3218.00,0.05
3217.00,0.05
3216.00,0.05
3215.00,0.05
3214.00,0.05
3213.00,0.05
3212.00,0.05
3211.00,0.05
3210.00,0.05
3209.00,0.05
3208.00,0.05
3207.00,0.05
3206.00,0.05
3205.00,0.04
3204.00,0.04
3203.00,0.04
3202.00,0.04
3201.00,0.04
3200.00,0.04
3199.00,0.04
3198.00,0.04
3197.00,0.04
3196.00,0.04
3195.00,0.04
3194.00,0.04
3193.00,0.04
3192.00,0.04
3191.00,0.04
3190.00,0.04
3189.00,0.04
3188.00,0.04
3187.00,0.03
3186.00,0.03
3185.00,0.03
3184.00,0.03
3183.00,0.03
3182.00,0.03
3181.00,0.03
3180.00,0.03
3179.00,0.03
3178.00,0.03
3177.00,0.03
3176.00,0.03
3175.00,0.03
3174.00,0.03
3173.00,0.03
3172.00,0.03
3171.00,0.03
3170.00,0.03
3169.00,0.03
3168.00,0.03
3167.00,0.03
3166.00,0.03
3165.00,0.03
3164.00,0.02
3163.00,0.02
3162.00,0.02
3161.00,0.02
3160.00,0.02
3159.00,0.02
3158.00,0.02
3157.00,0.02
3156.00,0.02
3155.00,0.02
3154.00,0.02
3153.00,0.02
3152.00,0.02
3151.00,0.02
3150.00,0.02
3149.00,0.02
3148.00,0.02
3147.00,0.02
3146.00,0.02
3145.00,0.02
3144.00,0.02
3143.00,0.02
3142.00,0.02
3141.00,0.02
3140.00,0.02
3139.00,0.02
3138.00,0.02
3137.00,0.02
3136.00,0.02
3135.00,0.02
3134.00,0.02
3133.00,0.02
3132.00,0.02
3131.00,0.02
3130.00,0.02
3129.00,0.02
3128.00,0.02
3127.00,0.02
3126.00,0.02
3125.00,0.01
3124.00,0.01
3123.00,0.01
3122.00,0.01
3121.00,0.01
3120.00,0.01
3119.00,0.01
3118.00,0.01
3117.00,0.01
3116.00,0.01
3115.00,0.01
3114.00,0.01
3113.00,0.01
3112.00,0.01
3111.00,0.01
3110.00,0.01
3109.00,0.01
3108.00,0.01
3107.00,0.01
3106.00,0.01
3105.00,0.01
3104.00,0.01
3103.00,0.01
3102.00,0.01
3101.00,0.01
3100.00,0.01
3099.00,0.01
3098.00,0.01
3097.00,0.01
3096.00,0.01
3095.00,0.01
3094.00,0.01
3093.00,0.01
3092.00,0.01
3091.00,0.01
3090.00,0.01
3089.00,0.01
3088.00,0.01
3087.00,0.01
3086.00,0.01
3085.00,0.01
3084.00,0.01
3083.00,0.01
3082.00,0.01
3081.00,0.01
3080.00,0.01
3079.00,0.01
3078.00,0.01
3077.00,0.01
3076.00,0.01
3075.00,0.01
3074.00,0.01
3073.00,0.01
3072.00,0.01
3071.00,0.01
3070.00,0.01
3069.00,0.01
3068.00,0.01
3067.00,0.01
3066.00,0.01
3065.00,0.01
3064.00,0.01
3063.00,0.01
3062.00,0.01
3061.00,0.01
3060.00,0.01
3059.00,0.01
3058.00,0.01
3057.00,0.01
3056.00,0.00
3055.00,0.00
3054.00,0.00
3053.00,0.00
3052.00,0.00
3051.00,0.01
3050.00,0.01
3049.00,0.00
3048.00,0.00
3047.00,0.00
3046.00,0.00
3045.00,0.00
3044.00,0.00
3043.00,0.00
3042.00,0.01
3041.00,0.01
3040.00,0.00
3039.00,0.00
3038.00,0.00
3037.00,0.00
3036.00,0.00
3035.00,0.00
3034.00,0.00
3033.00,0.00
3032.00,0.00
3031.00,0.00
3030.00,0.00
3029.00,0.00
3028.00,0.00
3027.00,0.00
3026.00,0.00
3025.00,0.00
3024.00,0.00
3023.00,0.00
3022.00,0.00
3021.00,0.00
3020.00,0.00
3019.00,0.00
3018.00,0.00
3017.00,0.00
3016.00,0.00
3015.00,0.00
3014.00,0.00
3013.00,0.00
3012.00,0.00
3011.00,0.00
3010.00,0.00
3009.00,0.00
3008.00,0.00
3007.00,0.00
3006.00,0.00
3005.00,0.00
3004.00,0.00
3003.00,0.00
3002.00,0.00
3001.00,0.00
3000.00,0.00
2999.00,0.00
2998.00,0.00
2997.00,0.00
2996.00,0.00
2995.00,0.00
2994.00,0.00
2993.00,0.00
2992.00,0.00
2991.00,0.00
2990.00,0.00
2989.00,0.00
2988.00,0.00
2987.00,0.00
2986.00,0.00
2985.00,0.00
2984.00,0.00
2983.00,0.00
2982.00,0.00
2981.00,0.00
2980.00,0.00
2979.00,0.00
2978.00,0.00
2977.00,0.00
2976.00,0.00
2975.00,0.00
2974.00,0.00
2973.00,0.00
2972.00,0.00
2971.00,0.00
2970.00,0.00
2969.00,0.00
2968.00,0.00
2967.00,0.00
2966.00,0.00
2965.00,0.00
2964.00,0.00
2963.00,0.00
2962.00,0.00
2961.00,0.00
2960.00,0.00
2959.00,0.00
2958.00,0.00
2957.00,0.00
2956.00,0.00
2955.00,0.00
2954.00,0.00
2953.00,0.00
2952.00,0.00
2951.00,0.00
2950.00,0.00
2949.00,0.00
2948.00,0.00
2947.00,0.00
2946.00,0.00
2945.00,0.00
2944.00,0.00
2943.00,0.00
2942.00,0.00
2941.00,0.00
2940.00,0.00
2939.00,0.00
2938.00,0.00
2937.00,0.00
2936.00,0.00
2935.00,0.00
2934.00,0.00
2933.00,0.00
2932.00,0.00
2931.00,0.00
2930.00,0.00
2929.00,0.00
2928.00,0.00
2927.00,0.00
2926.00,0.00
2925.00,0.00
2924.00,0.00
2923.00,0.00
2922.00,0.00
2921.00,0.00
2920.00,0.00
2919.00,0.00
2918.00,0.00
2917.00,0.00
2916.00,0.00
2915.00,0.00
2914.00,0.00
2913.00,0.00
2912.00,0.00
2911.00,0.00
2910.00,0.00
2909.00,0.00
2908.00,0.00
2907.00,0.00
2906.00,0.00
2905.00,0.00
2904.00,0.00
2903.00,0.00
2902.00,0.00
2901.00,0.00
2900.00,0.00
2899.00,0.00
2898.00,0.00
2897.00,0.00
2896.00,0.00
2895.00,0.00
2894.00,0.00
2893.00,0.00
2892.00,0.00
2891.00,0.00
2890.00,0.00
2889.00,0.00
2888.00,0.00
2887.00,0.00
2886.00,0.00
2885.00,0.00
2884.00,0.00
2883.00,0.00
2882.00,0.00
2881.00,0.00
2880.00,0.00
2879.00,0.00
2878.00,0.00
2877.00,0.00
2876.00,0.00
2875.00,0.00
2874.00,0.00
2873.00,0.00
2872.00,0.00
2871.00,0.00
2870.00,0.00
2869.00,0.00
2868.00,0.00
2867.00,0.00
2866.00,0.00
2865.00,0.00
2864.00,0.00
2863.00,0.00
2862.00,0.00
2861.00,0.00
2860.00,0.00
2859.00,0.00
2858.00,0.00
2857.00,0.00
2856.00,0.00
2855.00,0.00
2854.00,0.00
2853.00,0.00
2852.00,0.00
2851.00,0.00
2850.00,0.00
2849.00,0.00
2848.00,0.00
2847.00,0.00
2846.00,0.00
2845.00,0.00
2844.00,0.00
2843.00,0.00
2842.00,0.00
2841.00,0.00
2840.00,0.00
2839.00,0.00
2838.00,0.00
2837.00,0.00
2836.00,0.00
2835.00,0.00
2834.00,0.00
2833.00,0.00
2832.00,0.00
2831.00,0.00
2830.00,0.00
2829.00,0.00
2828.00,0.00
2827.00,0.00
2826.00,0.00
2825.00,0.00
2824.00,0.00
2823.00,0.00
2822.00,0.00
2821.00,0.00
2820.00,0.00
2819.00,0.00
2818.00,0.00
2817.00,0.00
2816.00,0.00
2815.00,0.00
2814.00,0.00
2813.00,0.00
2812.00,0.00
2811.00,0.00
2810.00,0.00
2809.00,0.00
2808.00,0.00
2807.00,0.00
2806.00,0.00
2805.00,0.00
2804.00,0.00
2803.00,0.00
2802.00,0.00
2801.00,0.00
2800.00,0.00
2799.00,0.00
2798.00,0.00
2797.00,0.00
2796.00,0.00
2795.00,0.00
2794.00,0.00
2793.00,0.00
2792.00,0.00
2791.00,0.00
2790.00,0.00
2789.00,0.00
2788.00,0.00
2787.00,0.00
2786.00,0.00
2785.00,0.00
2784.00,0.00
2783.00,0.00
2782.00,0.00
2781.00,0.00
2780.00,0.00
2779.00,0.00
2778.00,0.00
2777.00,0.00
2776.00,0.00
2775.00,0.00
2774.00,0.00
2773.00,0.00
2772.00,0.00
2771.00,0.00
2770.00,0.00
2769.00,0.00
2768.00,0.00
2767.00,0.00
2766.00,0.00
2765.00,0.00
2764.00,0.00
2763.00,0.00
2762.00,0.00
2761.00,0.00
2760.00,0.00
2759.00,0.00
2758.00,0.00
2757.00,0.00
2756.00,0.00
2755.00,0.00
2754.00,0.00
2753.00,0.00
2752.00,0.00
2751.00,0.00
2750.00,0.00
2749.00,0.00
2748.00,0.00
2747.00,0.00
2746.00,0.00
2745.00,0.00
2744.00,0.00
2743.00,0.00
2742.00,0.00
2741.00,0.00
2740.00,0.00
2739.00,0.00
2738.00,0.00
2737.00,0.00
2736.00,0.00
2735.00,0.00
2734.00,0.00
2733.00,0.00
2732.00,0.00
2731.00,0.00
2730.00,0.00
2729.00,0.00
2728.00,0.00
2727.00,0.00
2726.00,0.00
2725.00,0.00
2724.00,0.00
2723.00,0.00
2722.00,0.00
2721.00,0.00
2720.00,0.00
2719.00,0.00
2718.00,0.00
2717.00,0.00
2716.00,0.00
2715.00,0.00
2714.00,0.00
2713.00,0.00
2712.00,0.00
2711.00,0.00
2710.00,0.00
2709.00,0.00
2708.00,0.00
2707.00,0.00
2706.00,0.00
2705.00,0.00
2704.00,0.00
2703.00,0.00
2702.00,0.00
2701.00,0.00
2700.00,0.00
2699.00,0.00
2698.00,0.00
2697.00,0.00
2696.00,0.00
2695.00,0.00
2694.00,0.00
2693.00,0.00
2692.00,0.00
2691.00,0.00
2690.00,0.00
2689.00,0.00
2688.00,0.00
2687.00,0.00
2686.00,0.00
2685.00,0.00
2684.00,0.00
2683.00,0.00
2682.00,0.00
2681.00,0.00
2680.00,0.00
2679.00,0.00
2678.00,0.00
2677.00,0.00
2676.00,0.00
2675.00,0.00
2674.00,0.00
2673.00,0.00
2672.00,0.00
2671.00,0.00
2670.00,0.00
2669.00,0.00
2668.00,0.00
2667.00,0.00
2666.00,0.00
2665.00,0.00
2664.00,0.00
2663.00,0.00
2662.00,0.00
2661.00,0.00
2660.00,0.00
2659.00,0.00
2658.00,0.00
2657.00,0.00
2656.00,0.00
2655.00,0.00
2654.00,0.00
2653.00,0.00
2652.00,0.00
2651.00,0.00
2650.00,0.00
2649.00,0.00
2648.00,0.01
2647.00,0.01
2646.00,0.01
2645.00,0.01
2644.00,0.01
2643.00,0.00
2642.00,0.00
2641.00,0.00
2640.00,0.00
2639.00,0.00
2638.00,0.00
2637.00,0.00
2636.00,0.00
2635.00,0.00
2634.00,0.00
2633.00,0.00
2632.00,0.00
2631.00,0.00
2630.00,0.00
2629.00,0.00
2628.00,0.00
2627.00,0.00
2626.00,0.00
2625.00,0.00
2624.00,0.00
2623.00,0.00
2622.00,0.00
2621.00,0.00
2620.00,0.00
2619.00,0.00
2618.00,0.00
2617.00,0.00
2616.00,0.00
2615.00,0.00
2614.00,0.00
2613.00,0.00
2612.00,0.00
2611.00,0.00
2610.00,0.00
2609.00,0.00
2608.00,0.00
2607.00,0.00
2606.00,0.00
2605.00,0.00
2604.00,0.00
2603.00,0.00
2602.00,0.00
2601.00,0.00
2600.00,0.00
2599.00,0.00
2598.00,0.00
2597.00,0.00
2596.00,0.00
2595.00,0.00
2594.00,0.00
2593.00,0.00
2592.00,0.00
2591.00,0.00
2590.00,0.00
2589.00,0.00
2588.00,0.00
2587.00,0.00
2586.00,0.00
2585.00,0.00
2584.00,0.00
2583.00,0.00
2582.00,0.00
2581.00,0.00
2580.00,0.00
2579.00,0.00
2578.00,0.00
2577.00,0.00
2576.00,0.00
2575.00,0.00
2574.00,0.00
2573.00,0.00
2572.00,0.00
2571.00,0.00
2570.00,0.00
2569.00,0.00
2568.00,0.00
2567.00,0.00
2566.00,0.00
2565.00,0.00
2564.00,0.00
2563.00,0.00
2562.00,0.00
2561.00,0.00
2560.00,0.00
2559.00,0.00
2558.00,0.00
2557.00,0.00
2556.00,0.00
2555.00,0.00
2554.00,0.00
2553.00,0.00
2552.00,0.00
2551.00,0.00
2550.00,0.00
2549.00,0.00
2548.00,0.00
2547.00,0.00
2546.00,0.00
2545.00,0.00
2544.00,0.00
2543.00,0.00
2542.00,0.00
2541.00,0.00
2540.00,0.00
2539.00,0.00
2538.00,0.00
2537.00,0.00
2536.00,0.00
2535.00,0.00
2534.00,0.00
2533.00,0.00
2532.00,0.00
2531.00,0.00
2530.00,0.00
2529.00,0.00
2528.00,0.00
2527.00,0.00
2526.00,0.00
2525.00,0.00
2524.00,0.00
2523.00,0.00
2522.00,0.00
2521.00,0.00
2520.00,0.00
2519.00,0.00
2518.00,0.00
2517.00,0.00
2516.00,0.00
2515.00,0.00
2514.00,0.00
2513.00,0.00
2512.00,0.00
2511.00,0.00
2510.00,0.00
2509.00,0.00
2508.00,0.00
2507.00,0.00
2506.00,0.00
2505.00,0.00
2504.00,0.00
2503.00,0.00
2502.00,0.00
2501.00,0.00
2500.00,0.00
2499.00,0.00
2498.00,0.00
2497.00,0.00
2496.00,0.00
2495.00,0.00
2494.00,0.00
2493.00,0.00
2492.00,0.00
2491.00,0.00
2490.00,0.00
2489.00,0.00
2488.00,0.00
2487.00,0.00
2486.00,0.00
2485.00,0.00
2484.00,0.00
2483.00,0.00
2482.00,0.00
2481.00,0.00
2480.00,0.00
2479.00,0.00
2478.00,0.00
2477.00,0.00
2476.00,0.00
2475.00,0.00
2474.00,0.00
2473.00,0.00
2472.00,0.00
2471.00,0.00
2470.00,0.00
2469.00,0.00
2468.00,0.00
2467.00,0.00
2466.00,0.00
2465.00,0.00
2464.00,0.00
2463.00,0.00
2462.00,0.00
2461.00,0.00
2460.00,0.00
2459.00,0.00
2458.00,0.00
2457.00,0.00
2456.00,0.00
2455.00,0.00
2454.00,0.00
2453.00,0.00
2452.00,0.00
2451.00,0.00
2450.00,0.00
2449.00,0.00
2448.00,0.00
2447.00,0.00
2446.00,0.00
2445.00,0.00
2444.00,0.00
2443.00,0.00
2442.00,0.00
2441.00,0.00
2440.00,0.00
2439.00,0.00
2438.00,0.00
2437.00,0.00
2436.00,0.00
2435.00,0.00
2434.00,0.00
2433.00,0.00
2432.00,0.00
2431.00,0.00
2430.00,0.00
2429.00,0.00
2428.00,0.00
2427.00,0.00
2426.00,0.00
2425.00,0.00
2424.00,0.00
2423.00,0.00
2422.00,0.00
2421.00,0.00
2420.00,0.00
2419.00,0.00
2418.00,0.00
2417.00,0.00
2416.00,0.00
2415.00,0.00
2414.00,0.00
2413.00,0.00
2412.00,0.00
2411.00,0.00
2410.00,0.00
2409.00,0.00
2408.00,0.00
2407.00,0.00
2406.00,0.00
2405.00,0.00
2404.00,0.00
2403.00,0.00
2402.00,0.00
2401.00,0.00
2400.00,0.00
2399.00,0.00
2398.00,0.00
2397.00,0.00
2396.00,0.00
2395.00,0.00
2394.00,0.00
2393.00,0.00
2392.00,0.00
2391.00,0.00
2390.00,0.00
2389.00,0.00
2388.00,0.00
2387.00,0.00
2386.00,0.00
2385.00,0.00
2384.00,0.00
2383.00,0.00
2382.00,0.00
2381.00,0.00
2380.00,0.00
2379.00,0.00
2378.00,0.00
2377.00,0.00
2376.00,0.00
2375.00,0.00
2374.00,0.00
2373.00,0.00
2372.00,0.00
2371.00,0.00
2370.00,0.00
2369.00,0.00
2368.00,0.00
2367.00,0.00
2366.00,0.00
2365.00,0.00
2364.00,0.00
2363.00,0.00
2362.00,0.00
2361.00,0.00
2360.00,0.00
2359.00,0.00
2358.00,0.00
2357.00,0.00
2356.00,0.00
2355.00,0.00
2354.00,0.00
2353.00,0.00
2352.00,0.00
2351.00,0.00
2350.00,0.00
2349.00,0.00
2348.00,0.00
2347.00,0.00
2346.00,0.00
2345.00,0.00
2344.00,0.00
2343.00,0.00
2342.00,0.00
2341.00,0.00
2340.00,0.00
2339.00,0.00
2338.00,0.00
2337.00,0.00
2336.00,0.00
2335.00,0.00
2334.00,0.00
2333.00,0.00
2332.00,0.00
2331.00,0.00
2330.00,0.00
2329.00,0.00
2328.00,0.00
2327.00,0.00
2326.00,0.00
2325.00,0.00
2324.00,0.00
2323.00,0.00
2322.00,0.00
2321.00,0.00
2320.00,0.00
2319.00,0.00
2318.00,0.00
2317.00,0.00
2316.00,0.00
2315.00,0.00
2314.00,0.00
2313.00,0.00
2312.00,0.00
2311.00,0.00
2310.00,0.00
2309.00,0.00
2308.00,0.00
2307.00,0.00
2306.00,0.00
2305.00,0.00
2304.00,0.00
2303.00,0.00
2302.00,0.00
2301.00,0.00
2300.00,0.00
2299.00,0.00
2298.00,0.00
2297.00,0.00
2296.00,0.00
2295.00,0.00
2294.00,0.00
2293.00,0.00
2292.00,0.00
2291.00,0.00
2290.00,0.00
2289.00,0.00
2288.00,0.00
2287.00,0.00
2286.00,0.00
2285.00,0.00
2284.00,0.00
2283.00,0.00
2282.00,0.00
2281.00,0.00
2280.00,0.00
2279.00,0.00
2278.00,0.00
2277.00,0.00
2276.00,0.00
2275.00,0.00
2274.00,0.00
2273.00,0.00
2272.00,0.00
2271.00,0.00
2270.00,0.00
2269.00,0.00
2268.00,0.00
2267.00,0.00
2266.00,0.00
2265.00,0.00
2264.00,0.00
2263.00,0.00
2262.00,0.00
2261.00,0.00
2260.00,0.00
2259.00,0.00
2258.00,0.00
2257.00,0.00
2256.00,0.00
2255.00,0.00
2254.00,0.00
2253.00,0.00
2252.00,0.00
2251.00,0.00
2250.00,0.00
2249.00,0.00
2248.00,0.00
2247.00,0.00
2246.00,0.00
2245.00,0.00
2244.00,0.00
2243.00,0.00
2242.00,0.00
2241.00,0.00
2240.00,0.00
2239.00,0.00
2238.00,0.00
2237.00,0.00
2236.00,0.00
2235.00,0.00
2234.00,0.00
2233.00,0.00
2232.00,0.00
2231.00,0.00
2230.00,0.00
2229.00,0.00
2228.00,0.00
2227.00,0.00
2226.00,0.00
2225.00,0.00
2224.00,0.00
2223.00,0.00
2222.00,0.00
2221.00,0.00
2220.00,0.00
2219.00,0.00
2218.00,0.00
2217.00,0.00
2216.00,0.00
2215.00,0.00
2214.00,0.00
2213.00,0.00
2212.00,0.00
2211.00,0.00
2210.00,0.00
2209.00,0.00
2208.00,0.00
2207.00,0.00
2206.00,0.00
2205.00,0.00
2204.00,0.00
2203.00,0.00
2202.00,0.00
2201.00,0.00
2200.00,0.00
2199.00,0.00
2198.00,0.00
2197.00,0.00
2196.00,0.00
2195.00,0.00
2194.00,0.00
2193.00,0.00
2192.00,0.00
2191.00,0.00
2190.00,0.00
2189.00,0.00
2188.00,0.00
2187.00,0.00
2186.00,0.00
2185.00,0.00
2184.00,0.00
2183.00,0.00
2182.00,0.00
2181.00,0.00
2180.00,0.00
2179.00,0.00
2178.00,0.00
2177.00,0.00
2176.00,0.00
2175.00,0.00
2174.00,0.00
2173.00,0.00
2172.00,0.00
2171.00,0.00
2170.00,0.00
2169.00,0.00
2168.00,0.00
2167.00,0.00
2166.00,0.00
2165.00,0.00
2164.00,0.00
2163.00,0.00
2162.00,0.00
2161.00,0.00
2160.00,0.00
2159.00,0.00
2158.00,0.00
2157.00,0.00
2156.00,0.00
2155.00,0.00
2154.00,0.00
2153.00,0.00
2152.00,0.00
2151.00,0.00
2150.00,0.00
2149.00,0.00
2148.00,0.00
2147.00,0.00
2146.00,0.00
2145.00,0.00
2144.00,0.00
2143.00,0.00
2142.00,0.00
2141.00,0.00
2140.00,0.00
2139.00,0.00
2138.00,0.00
2137.00,0.00
2136.00,0.00
2135.00,0.00
2134.00,0.00
2133.00,0.00
2132.00,0.00
2131.00,0.00
2130.00,0.00
2129.00,0.00
2128.00,0.00
2127.00,0.00
2126.00,0.00
2125.00,0.00
2124.00,0.00
2123.00,0.00
2122.00,0.00
2121.00,0.00
2120.00,0.00
2119.00,0.00
2118.00,0.00
2117.00,0.00
2116.00,0.00
2115.00,0.00
2114.00,0.00
2113.00,0.00
2112.00,0.00
2111.00,0.00
2110.00,0.00
2109.00,0.00
2108.00,0.00
2107.00,0.00
2106.00,0.00
2105.00,0.00
2104.00,0.00
2103.00,0.00
2102.00,0.00
2101.00,0.00
2100.00,0.00
2099.00,0.00
2098.00,0.00
2097.00,0.00
2096.00,0.00
2095.00,0.00
2094.00,0.00
2093.00,0.00
2092.00,0.00
2091.00,0.00
2090.00,0.00
2089.00,0.00
2088.00,0.00
2087.00,0.00
2086.00,0.00
2085.00,0.00
2084.00,0.00
2083.00,0.00
2082.00,0.00
2081.00,0.00
2080.00,0.00
2079.00,0.00
2078.00,0.00
2077.00,0.00
2076.00,0.00
2075.00,0.00
2074.00,0.00
2073.00,0.00
2072.00,0.00
2071.00,0.00
2070.00,0.00
2069.00,0.00
2068.00,0.00
2067.00,0.00
2066.00,0.00
2065.00,0.00
2064.00,0.00
2063.00,0.00
2062.00,0.00
2061.00,0.00
2060.00,0.00
2059.00,0.00
2058.00,0.00
2057.00,0.00
2056.00,0.00
2055.00,0.00
2054.00,0.00
2053.00,0.00
2052.00,0.00
2051.00,0.00
2050.00,0.00
2049.00,0.00
2048.00,0.00
2047.00,0.00
2046.00,0.00
2045.00,0.00
2044.00,0.00
2043.00,0.00
2042.00,0.00
2041.00,0.00
2040.00,0.00
2039.00,0.00
2038.00,0.00
2037.00,0.00
2036.00,0.00
2035.00,0.00
2034.00,0.00
2033.00,0.00
2032.00,0.00
2031.00,0.00
2030.00,0.00
2029.00,0.00
2028.00,0.00
2027.00,0.00
2026.00,0.00
2025.00,0.00
2024.00,0.00
2023.00,0.00
2022.00,0.00
2021.00,0.00
2020.00,0.00
2019.00,0.00
2018.00,0.00
2017.00,0.00
2016.00,0.00
2015.00,0.00
2014.00,0.00
2013.00,0.00
2012.00,0.00
2011.00,0.00
2010.00,0.00
2009.00,0.00
2008.00,0.00
2007.00,0.00
2006.00,0.00
2005.00,0.00
2004.00,0.00
2003.00,0.00
2002.00,0.00
2001.00,0.00
2000.00,0.00
1999.00,0.00
1998.00,0.00
1997.00,0.00
1996.00,0.00
1995.00,0.00
1994.00,0.00
1993.00,0.00
1992.00,0.00
1991.00,0.00
1990.00,0.00
1989.00,0.00
1988.00,0.00
1987.00,0.00
1986.00,0.00
1985.00,0.00
1984.00,0.00
1983.00,0.00
1982.00,0.00
1981.00,0.00
1980.00,0.00
1979.00,0.00
1978.00,0.00
1977.00,0.00
1976.00,0.00
1975.00,0.00
1974.00,0.00
1973.00,0.00
1972.00,0.00
1971.00,0.00
1970.00,0.00
1969.00,0.00
1968.00,0.00
1967.00,0.00
1966.00,0.00
1965.00,0.00
1964.00,0.00
1963.00,0.00
1962.00,0.00
1961.00,0.00
1960.00,0.00
1959.00,0.00
1958.00,0.00
1957.00,0.00
1956.00,0.00
1955.00,0.00
1954.00,0.00
1953.00,0.00
1952.00,0.00
1951.00,0.00
1950.00,0.00
1949.00,0.00
1948.00,0.00
1947.00,0.00
1946.00,0.00
1945.00,0.00
1944.00,0.00
1943.00,0.00
1942.00,0.00
1941.00,0.00
1940.00,0.00
1939.00,0.00
1938.00,0.00
1937.00,0.00
1936.00,0.00
1935.00,0.00
1934.00,0.00
1933.00,0.00
1932.00,0.00
1931.00,0.00
1930.00,0.00
1929.00,0.00
1928.00,0.00
1927.00,0.00
1926.00,0.00
1925.00,0.00
1924.00,0.00
1923.00,0.00
1922.00,0.00
1921.00,0.00
1920.00,0.00
1919.00,0.00
1918.00,0.00
1917.00,0.00
1916.00,0.00
1915.00,0.00
1914.00,0.00
1913.00,0.00
1912.00,0.00
1911.00,0.00
1910.00,0.00
1909.00,0.00
1908.00,0.00
1907.00,0.00
1906.00,0.00
1905.00,0.00
1904.00,0.00
1903.00,0.00
1902.00,0.00
1901.00,0.00
1900.00,0.00
1899.00,0.00
1898.00,0.00
1897.00,0.00
1896.00,0.00
1895.00,0.00
1894.00,0.00
1893.00,0.00
1892.00,0.00
1891.00,0.00
1890.00,0.00
1889.00,0.00
1888.00,0.00
1887.00,0.00
1886.00,0.00
1885.00,0.00
1884.00,0.00
1883.00,0.00
1882.00,0.00
1881.00,0.00
1880.00,0.00
1879.00,0.00
1878.00,0.00
1877.00,0.00
1876.00,0.00
1875.00,0.00
1874.00,0.00
1873.00,0.00
1872.00,0.00
1871.00,0.00
1870.00,0.00
1869.00,0.00
1868.00,0.00
1867.00,0.00
1866.00,0.00
1865.00,0.00
1864.00,0.00
1863.00,0.00
1862.00,0.00
1861.00,0.00
1860.00,0.00
1859.00,0.00
1858.00,0.00
1857.00,0.00
1856.00,0.00
1855.00,0.00
1854.00,0.00
1853.00,0.00
1852.00,0.00
1851.00,0.00
1850.00,0.00
1849.00,0.00
1848.00,0.00
1847.00,0.00
1846.00,0.00
1845.00,0.00
1844.00,0.00
1843.00,0.00
1842.00,0.00
1841.00,0.00
1840.00,0.00
1839.00,0.00
1838.00,0.00
1837.00,0.00
1836.00,0.00
1835.00,0.00
1834.00,0.00
1833.00,0.00
1832.00,0.00
1831.00,0.00
1830.00,0.00
1829.00,0.00
1828.00,0.00
1827.00,0.00
1826.00,0.00
1825.00,0.00
1824.00,0.00
1823.00,0.00
1822.00,0.00
1821.00,0.00
1820.00,0.00
1819.00,0.00
1818.00,0.00
1817.00,0.00
1816.00,0.00
1815.00,0.00
1814.00,0.00
1813.00,0.00
1812.00,0.00
1811.00,0.00
1810.00,0.00
1809.00,0.00
1808.00,0.00
1807.00,0.00
1806.00,0.00
1805.00,0.00
1804.00,0.00
1803.00,0.00
1802.00,0.00
1801.00,0.00
1800.00,0.00
1799.00,0.00
1798.00,0.00
1797.00,0.00
1796.00,0.00
1795.00,0.00
1794.00,0.00
1793.00,0.00
1792.00,0.00
1791.00,0.00
1790.00,0.00
1789.00,0.00
1788.00,0.00
1787.00,0.00
1786.00,0.00
1785.00,0.00
1784.00,0.00
1783.00,0.00
1782.00,0.00
1781.00,0.00
1780.00,0.00
1779.00,0.00
1778.00,0.00
1777.00,0.00
1776.00,0.00
1775.00,0.00
1774.00,0.00
1773.00,0.00
1772.00,0.00
1771.00,0.00
1770.00,0.00
1769.00,0.00
1768.00,0.00
1767.00,0.00
1766.00,0.00
1765.00,0.00
1764.00,0.00
1763.00,0.00
1762.00,0.00
1761.00,0.00
1760.00,0.00
1759.00,0.00
1758.00,0.00
1757.00,0.00
1756.00,0.00
1755.00,0.00
1754.00,0.00
1753.00,0.00
1752.00,0.00
1751.00,0.00
1750.00,0.00
1749.00,0.00
1748.00,0.00
1747.00,0.00
1746.00,0.00
1745.00,0.00
1744.00,0.00
1743.00,0.00
1742.00,0.00
1741.00,0.00
1740.00,0.00
1739.00,0.00
1738.00,0.00
1737.00,0.00
1736.00,0.00
1735.00,0.00
1734.00,0.00
1733.00,0.00
1732.00,0.00
1731.00,0.00
1730.00,0.00
1729.00,0.00
1728.00,0.00
1727.00,0.00
1726.00,0.00
1725.00,0.00
1724.00,0.00
1723.00,0.00
1722.00,0.00
1721.00,0.00
1720.00,0.00
1719.00,0.00
1718.00,0.00
1717.00,0.00
1716.00,0.00
1715.00,0.00
1714.00,0.00
1713.00,0.00
1712.00,0.00
1711.00,0.00
1710.00,0.00
1709.00,0.00
1708.00,0.00
1707.00,0.00
1706.00,0.00
1705.00,0.00
1704.00,0.00
1703.00,0.00
1702.00,0.00
1701.00,0.00
1700.00,0.00
1699.00,0.00
1698.00,0.00
1697.00,0.00
1696.00,0.00
1695.00,0.00
1694.00,0.00
1693.00,0.00
1692.00,0.00
1691.00,0.00
1690.00,0.00
1689.00,0.00
1688.00,0.00
1687.00,0.00
1686.00,0.00
1685.00,0.00
1684.00,0.00
1683.00,0.00
1682.00,0.00
1681.00,0.00
1680.00,0.00
1679.00,0.00
1678.00,0.00
1677.00,0.00
1676.00,0.00
1675.00,0.00
1674.00,0.00
1673.00,0.00
1672.00,0.00
1671.00,0.00
1670.00,0.00
1669.00,0.00
1668.00,0.00
1667.00,0.00
1666.00,0.00
1665.00,0.00
1664.00,0.00
1663.00,0.00
1662.00,0.00
1661.00,0.00
1660.00,0.00
1659.00,0.00
1658.00,0.00
1657.00,0.00
1656.00,0.00
1655.00,0.00
1654.00,0.00
1653.00,0.00
1652.00,0.00
1651.00,0.00
1650.00,0.00
1649.00,0.00
1648.00,0.00
1647.00,0.00
1646.00,0.00
1645.00,0.00
1644.00,0.00
1643.00,0.00
1642.00,0.00
1641.00,0.00
1640.00,0.00
1639.00,0.00
1638.00,0.00
1637.00,0.00
1636.00,0.00
1635.00,0.00
1634.00,0.00
1633.00,0.00
1632.00,0.00
1631.00,0.00
1630.00,0.00
1629.00,0.00
1628.00,0.00
1627.00,0.00
1626.00,0.00
1625.00,0.00
1624.00,0.00
1623.00,0.00
1622.00,0.00
1621.00,0.00
1620.00,0.00
1619.00,0.00
1618.00,0.00
1617.00,0.00
1616.00,0.00
1615.00,0.00
1614.00,0.00
1613.00,0.00
1612.00,0.00
1611.00,0.00
1610.00,0.00
1609.00,0.00
1608.00,0.00
1607.00,0.00
1606.00,0.00
1605.00,0.00
1604.00,0.00
1603.00,0.00
1602.00,0.00
1601.00,0.00
1600.00,0.00
1599.00,0.00
1598.00,0.00
1597.00,0.00
1596.00,0.00
1595.00,0.00
1594.00,0.00
1593.00,0.00
1592.00,0.00
1591.00,0.00
1590.00,0.00
1589.00,0.00
1588.00,0.00
1587.00,0.00
1586.00,0.00
1585.00,0.00
1584.00,0.00
1583.00,0.00
1582.00,0.00
1581.00,0.00
1580.00,0.00
1579.00,0.00
1578.00,0.00
1577.00,0.00
1576.00,0.00
1575.00,0.00
1574.00,0.00
1573.00,0.00
1572.00,0.00
1571.00,0.00
1570.00,0.00
1569.00,0.00
1568.00,0.00
1567.00,0.00
1566.00,0.00
1565.00,0.00
1564.00,0.00
1563.00,0.00
1562.00,0.00
1561.00,0.00
1560.00,0.00
1559.00,0.00
1558.00,0.00
1557.00,0.00
1556.00,0.00
1555.00,0.00
1554.00,0.00
1553.00,0.00
1552.00,0.00
1551.00,0.00
1550.00,0.00
1549.00,0.00
1548.00,0.00
1547.00,0.00
1546.00,0.00
1545.00,0.00
1544.00,0.00
1543.00,0.00
1542.00,0.00
1541.00,0.00
1540.00,0.00
1539.00,0.00
1538.00,0.00
1537.00,0.00
1536.00,0.00
1535.00,0.00
1534.00,0.00
1533.00,0.00
1532.00,0.00
1531.00,0.00
1530.00,0.00
1529.00,0.00
1528.00,0.00
1527.00,0.00
1526.00,0.00
1525.00,0.00
1524.00,0.00
1523.00,0.00
1522.00,0.00
1521.00,0.00
1520.00,0.00
1519.00,0.00
1518.00,0.00
1517.00,0.00
1516.00,0.00
1515.00,0.00
1514.00,0.00
1513.00,0.00
1512.00,0.00
1511.00,0.00
1510.00,0.00
1509.00,0.00
1508.00,0.00
1507.00,0.00
1506.00,0.00
1505.00,0.00
1504.00,0.00
1503.00,0.00
1502.00,0.00
1501.00,0.00
1500.00,0.00
