Created as New Dataset,Sample 074 By Student Date Tuesday, February 27 2024
cm-1,%T
8000.00,89.56
7999.00,89.57
7998.00,89.59
7997.00,89.61
7996.00,89.64
7995.00,89.66
7994.00,89.65
7993.00,89.60
7992.00,89.54
7991.00,89.49
7990.00,89.47
7989.00,89.48
7988.00,89.50
7987.00,89.55
7986.00,89.60
7985.00,89.64
7984.00,89.66
7983.00,89.67
7982.00,89.68
7981.00,89.67
7980.00,89.65
7979.00,89.61
7978.00,89.58
7977.00,89.60
7976.00,89.63
7975.00,89.66
7974.00,89.68
7973.00,89.69
7972.00,89.71
7971.00,89.73
7970.00,89.74
7969.00,89.73
7968.00,89.72
7967.00,89.71
7966.00,89.69
7965.00,89.67
7964.00,89.64
7963.00,89.64
7962.00,89.67
7961.00,89.71
7960.00,89.73
7959.00,89.71
7958.00,89.67
7957.00,89.63
7956.00,89.60
7955.00,89.56
7954.00,89.51
7953.00,89.47
7952.00,89.48
7951.00,89.54
7950.00,89.62
7949.00,89.69
7948.00,89.72
7947.00,89.73
7946.00,89.75
7945.00,89.75
7944.00,89.72
7943.00,89.67
7942.00,89.63
7941.00,89.63
7940.00,89.66
7939.00,89.69
7938.00,89.68
7937.00,89.66
7936.00,89.65
7935.00,89.66
7934.00,89.68
7933.00,89.70
7932.00,89.70
7931.00,89.70
7930.00,89.71
7929.00,89.72
7928.00,89.73
7927.00,89.73
7926.00,89.71
7925.00,89.69
7924.00,89.69
7923.00,89.70
7922.00,89.71
7921.00,89.71
7920.00,89.71
7919.00,89.73
7918.00,89.76
7917.00,89.79
7916.00,89.81
7915.00,89.82
7914.00,89.83
7913.00,89.83
7912.00,89.83
7911.00,89.81
7910.00,89.78
7909.00,89.75
7908.00,89.73
7907.00,89.73
7906.00,89.73
7905.00,89.74
7904.00,89.76
7903.00,89.79
7902.00,89.81
7901.00,89.82
7900.00,89.82
7899.00,89.81
7898.00,89.80
7897.00,89.79
7896.00,89.78
7895.00,89.76
7894.00,89.75
7893.00,89.74
7892.00,89.73
7891.00,89.73
7890.00,89.74
7889.00,89.74
7888.00,89.75
7887.00,89.76
7886.00,89.78
7885.00,89.79
7884.00,89.80
7883.00,89.80
7882.00,89.79
7881.00,89.78
7880.00,89.78
7879.00,89.79
7878.00,89.80
7877.00,89.81
7876.00,89.80
7875.00,89.79
7874.00,89.79
7873.00,89.80
7872.00,89.81
7871.00,89.81
7870.00,89.80
7869.00,89.80
7868.00,89.78
7867.00,89.78
7866.00,89.78
7865.00,89.79
7864.00,89.80
7863.00,89.80
7862.00,89.77
7861.00,89.74
7860.00,89.73
7859.00,89.73
7858.00,89.74
7857.00,89.74
7856.00,89.72
7855.00,89.72
7854.00,89.74
7853.00,89.77
7852.00,89.79
7851.00,89.81
7850.00,89.82
7849.00,89.83
7848.00,89.84
7847.00,89.85
7846.00,89.86
7845.00,89.87
7844.00,89.86
7843.00,89.85
7842.00,89.83
7841.00,89.83
7840.00,89.82
7839.00,89.81
7838.00,89.80
7837.00,89.79
7836.00,89.78
7835.00,89.77
7834.00,89.76
7833.00,89.75
7832.00,89.76
7831.00,89.77
7830.00,89.78
7829.00,89.78
7828.00,89.78
7827.00,89.80
7826.00,89.83
7825.00,89.85
7824.00,89.85
7823.00,89.84
7822.00,89.84
7821.00,89.85
7820.00,89.86
7819.00,89.84
7818.00,89.81
7817.00,89.77
7816.00,89.74
7815.00,89.72
7814.00,89.72
7813.00,89.72
7812.00,89.71
7811.00,89.70
7810.00,89.70
7809.00,89.71
7808.00,89.73
7807.00,89.73
7806.00,89.74
7805.00,89.74
7804.00,89.75
7803.00,89.75
7802.00,89.76
7801.00,89.76
7800.00,89.76
7799.00,89.76
7798.00,89.77
7797.00,89.77
7796.00,89.77
7795.00,89.79
7794.00,89.82
7793.00,89.84
7792.00,89.83
7791.00,89.82
7790.00,89.81
7789.00,89.80
7788.00,89.78
7787.00,89.76
7786.00,89.74
7785.00,89.73
7784.00,89.73
7783.00,89.74
7782.00,89.74
7781.00,89.74
7780.00,89.73
7779.00,89.73
7778.00,89.73
7777.00,89.74
7776.00,89.73
7775.00,89.70
7774.00,89.68
7773.00,89.67
7772.00,89.68
7771.00,89.69
7770.00,89.69
7769.00,89.70
7768.00,89.71
7767.00,89.73
7766.00,89.75
7765.00,89.74
7764.00,89.72
7763.00,89.69
7762.00,89.67
7761.00,89.67
7760.00,89.68
7759.00,89.71
7758.00,89.75
7757.00,89.78
7756.00,89.81
7755.00,89.83
7754.00,89.84
7753.00,89.83
7752.00,89.81
7751.00,89.78
7750.00,89.76
7749.00,89.76
7748.00,89.77
7747.00,89.78
7746.00,89.78
7745.00,89.77
7744.00,89.76
7743.00,89.75
7742.00,89.73
7741.00,89.71
7740.00,89.72
7739.00,89.73
7738.00,89.73
7737.00,89.73
7736.00,89.74
7735.00,89.75
7734.00,89.76
7733.00,89.76
7732.00,89.75
7731.00,89.74
7730.00,89.75
7729.00,89.76
7728.00,89.76
7727.00,89.77
7726.00,89.78
7725.00,89.79
7724.00,89.79
7723.00,89.78
7722.00,89.78
7721.00,89.78
7720.00,89.78
7719.00,89.78
7718.00,89.78
7717.00,89.79
7716.00,89.79
7715.00,89.78
7714.00,89.75
7713.00,89.71
7712.00,89.65
7711.00,89.59
7710.00,89.53
7709.00,89.47
7708.00,89.44
7707.00,89.44
7706.00,89.47
7705.00,89.53
7704.00,89.59
7703.00,89.66
7702.00,89.72
7701.00,89.76
7700.00,89.79
7699.00,89.81
7698.00,89.82
7697.00,89.83
7696.00,89.84
7695.00,89.84
7694.00,89.84
7693.00,89.82
7692.00,89.81
7691.00,89.80
7690.00,89.80
7689.00,89.80
7688.00,89.80
7687.00,89.78
7686.00,89.76
7685.00,89.76
7684.00,89.76
7683.00,89.76
7682.00,89.75
7681.00,89.73
7680.00,89.71
7679.00,89.69
7678.00,89.69
7677.00,89.69
7676.00,89.70
7675.00,89.70
7674.00,89.69
7673.00,89.70
7672.00,89.72
7671.00,89.75
7670.00,89.77
7669.00,89.77
7668.00,89.75
7667.00,89.74
7666.00,89.74
7665.00,89.75
7664.00,89.76
7663.00,89.76
7662.00,89.77
7661.00,89.79
7660.00,89.81
7659.00,89.82
7658.00,89.83
7657.00,89.83
7656.00,89.84
7655.00,89.84
7654.00,89.84
7653.00,89.84
7652.00,89.84
7651.00,89.84
7650.00,89.84
7649.00,89.82
7648.00,89.78
7647.00,89.74
7646.00,89.70
7645.00,89.68
7644.00,89.67
7643.00,89.67
7642.00,89.68
7641.00,89.69
7640.00,89.70
7639.00,89.71
7638.00,89.72
7637.00,89.72
7636.00,89.70
7635.00,89.67
7634.00,89.66
7633.00,89.68
7632.00,89.71
7631.00,89.73
7630.00,89.75
7629.00,89.77
7628.00,89.79
7627.00,89.81
7626.00,89.82
7625.00,89.82
7624.00,89.82
7623.00,89.82
7622.00,89.84
7621.00,89.86
7620.00,89.87
7619.00,89.84
7618.00,89.79
7617.00,89.74
7616.00,89.71
7615.00,89.69
7614.00,89.69
7613.00,89.69
7612.00,89.70
7611.00,89.72
7610.00,89.75
7609.00,89.75
7608.00,89.73
7607.00,89.69
7606.00,89.66
7605.00,89.63
7604.00,89.63
7603.00,89.64
7602.00,89.66
7601.00,89.68
7600.00,89.70
7599.00,89.72
7598.00,89.74
7597.00,89.75
7596.00,89.75
7595.00,89.75
7594.00,89.75
7593.00,89.76
7592.00,89.77
7591.00,89.78
7590.00,89.78
7589.00,89.78
7588.00,89.78
7587.00,89.79
7586.00,89.81
7585.00,89.82
7584.00,89.82
7583.00,89.82
7582.00,89.82
7581.00,89.82
7580.00,89.82
7579.00,89.82
7578.00,89.81
7577.00,89.80
7576.00,89.79
7575.00,89.79
7574.00,89.80
7573.00,89.80
7572.00,89.81
7571.00,89.80
7570.00,89.81
7569.00,89.82
7568.00,89.82
7567.00,89.83
7566.00,89.82
7565.00,89.81
7564.00,89.79
7563.00,89.78
7562.00,89.77
7561.00,89.77
7560.00,89.78
7559.00,89.80
7558.00,89.82
7557.00,89.84
7556.00,89.86
7555.00,89.87
7554.00,89.87
7553.00,89.87
7552.00,89.86
7551.00,89.86
7550.00,89.86
7549.00,89.86
7548.00,89.86
7547.00,89.84
7546.00,89.82
7545.00,89.80
7544.00,89.78
7543.00,89.76
7542.00,89.75
7541.00,89.76
7540.00,89.78
7539.00,89.81
7538.00,89.83
7537.00,89.83
7536.00,89.83
7535.00,89.81
7534.00,89.80
7533.00,89.78
7532.00,89.78
7531.00,89.78
7530.00,89.79
7529.00,89.81
7528.00,89.83
7527.00,89.84
7526.00,89.83
7525.00,89.81
7524.00,89.78
7523.00,89.75
7522.00,89.73
7521.00,89.72
7520.00,89.71
7519.00,89.72
7518.00,89.73
7517.00,89.74
7516.00,89.75
7515.00,89.76
7514.00,89.77
7513.00,89.78
7512.00,89.79
7511.00,89.79
7510.00,89.77
7509.00,89.74
7508.00,89.71
7507.00,89.69
7506.00,89.67
7505.00,89.65
7504.00,89.62
7503.00,89.58
7502.00,89.56
7501.00,89.56
7500.00,89.57
7499.00,89.57
7498.00,89.57
7497.00,89.58
7496.00,89.61
7495.00,89.64
7494.00,89.64
7493.00,89.62
7492.00,89.59
7491.00,89.56
7490.00,89.54
7489.00,89.54
7488.00,89.54
7487.00,89.56
7486.00,89.60
7485.00,89.64
7484.00,89.68
7483.00,89.70
7482.00,89.71
7481.00,89.72
7480.00,89.73
7479.00,89.72
7478.00,89.70
7477.00,89.69
7476.00,89.68
7475.00,89.66
7474.00,89.63
7473.00,89.61
7472.00,89.61
7471.00,89.62
7470.00,89.62
7469.00,89.63
7468.00,89.64
7467.00,89.65
7466.00,89.66
7465.00,89.68
7464.00,89.69
7463.00,89.71
7462.00,89.72
7461.00,89.74
7460.00,89.75
7459.00,89.74
7458.00,89.72
7457.00,89.70
7456.00,89.68
7455.00,89.67
7454.00,89.67
7453.00,89.68
7452.00,89.68
7451.00,89.69
7450.00,89.69
7449.00,89.70
7448.00,89.69
7447.00,89.68
7446.00,89.66
7445.00,89.65
7444.00,89.64
7443.00,89.64
7442.00,89.64
7441.00,89.65
7440.00,89.67
7439.00,89.68
7438.00,89.68
7437.00,89.69
7436.00,89.69
7435.00,89.69
7434.00,89.69
7433.00,89.69
7432.00,89.70
7431.00,89.71
7430.00,89.71
7429.00,89.70
7428.00,89.68
7427.00,89.65
7426.00,89.62
7425.00,89.60
7424.00,89.58
7423.00,89.56
7422.00,89.55
7421.00,89.57
7420.00,89.60
7419.00,89.62
7418.00,89.63
7417.00,89.63
7416.00,89.64
7415.00,89.65
7414.00,89.66
7413.00,89.67
7412.00,89.67
7411.00,89.68
7410.00,89.68
7409.00,89.67
7408.00,89.66
7407.00,89.65
7406.00,89.62
7405.00,89.59
7404.00,89.57
7403.00,89.56
7402.00,89.55
7401.00,89.56
7400.00,89.56
7399.00,89.57
7398.00,89.59
7397.00,89.60
7396.00,89.62
7395.00,89.63
7394.00,89.64
7393.00,89.64
7392.00,89.63
7391.00,89.61
7390.00,89.59
7389.00,89.58
7388.00,89.57
7387.00,89.56
7386.00,89.55
7385.00,89.55
7384.00,89.56
7383.00,89.55
7382.00,89.53
7381.00,89.51
7380.00,89.49
7379.00,89.48
7378.00,89.48
7377.00,89.49
7376.00,89.50
7375.00,89.51
7374.00,89.51
7373.00,89.52
7372.00,89.51
7371.00,89.50
7370.00,89.49
7369.00,89.48
7368.00,89.48
7367.00,89.47
7366.00,89.46
7365.00,89.46
7364.00,89.46
7363.00,89.44
7362.00,89.42
7361.00,89.40
7360.00,89.39
7359.00,89.37
7358.00,89.35
7357.00,89.34
7356.00,89.33
7355.00,89.33
7354.00,89.32
7353.00,89.31
7352.00,89.30
7351.00,89.29
7350.00,89.28
7349.00,89.29
7348.00,89.30
7347.00,89.30
7346.00,89.27
7345.00,89.25
7344.00,89.23
7343.00,89.22
7342.00,89.20
7341.00,89.18
7340.00,89.17
7339.00,89.17
7338.00,89.18
7337.00,89.20
7336.00,89.20
7335.00,89.18
7334.00,89.16
7333.00,89.14
7332.00,89.13
7331.00,89.12
7330.00,89.10
7329.00,89.09
7328.00,89.08
7327.00,89.06
7326.00,89.04
7325.00,89.02
7324.00,88.99
7323.00,88.97
7322.00,88.95
7321.00,88.93
7320.00,88.92
7319.00,88.90
7318.00,88.88
7317.00,88.86
7316.00,88.86
7315.00,88.86
7314.00,88.86
7313.00,88.87
7312.00,88.87
7311.00,88.87
7310.00,88.86
7309.00,88.86
7308.00,88.85
7307.00,88.84
7306.00,88.83
7305.00,88.82
7304.00,88.82
7303.00,88.82
7302.00,88.82
7301.00,88.82
7300.00,88.81
7299.00,88.79
7298.00,88.79
7297.00,88.79
7296.00,88.79
7295.00,88.79
7294.00,88.78
7293.00,88.77
7292.00,88.76
7291.00,88.74
7290.00,88.70
7289.00,88.67
7288.00,88.65
7287.00,88.64
7286.00,88.62
7285.00,88.61
7284.00,88.59
7283.00,88.59
7282.00,88.58
7281.00,88.57
7280.00,88.56
7279.00,88.54
7278.00,88.52
7277.00,88.52
7276.00,88.52
7275.00,88.53
7274.00,88.53
7273.00,88.54
7272.00,88.53
7271.00,88.52
7270.00,88.51
7269.00,88.50
7268.00,88.48
7267.00,88.46
7266.00,88.45
7265.00,88.46
7264.00,88.47
7263.00,88.48
7262.00,88.49
7261.00,88.49
7260.00,88.50
7259.00,88.51
7258.00,88.50
7257.00,88.50
7256.00,88.49
7255.00,88.48
7254.00,88.47
7253.00,88.45
7252.00,88.43
7251.00,88.40
7250.00,88.38
7249.00,88.36
7248.00,88.34
7247.00,88.32
7246.00,88.30
7245.00,88.30
7244.00,88.30
7243.00,88.31
7242.00,88.32
7241.00,88.33
7240.00,88.35
7239.00,88.36
7238.00,88.36
7237.00,88.35
7236.00,88.35
7235.00,88.34
7234.00,88.32
7233.00,88.31
7232.00,88.31
7231.00,88.31
7230.00,88.30
7229.00,88.30
7228.00,88.30
7227.00,88.30
7226.00,88.30
7225.00,88.30
7224.00,88.30
7223.00,88.30
7222.00,88.31
7221.00,88.31
7220.00,88.31
7219.00,88.30
7218.00,88.29
7217.00,88.27
7216.00,88.26
7215.00,88.24
7214.00,88.22
7213.00,88.21
7212.00,88.20
7211.00,88.19
7210.00,88.19
7209.00,88.19
7208.00,88.18
7207.00,88.17
7206.00,88.15
7205.00,88.15
7204.00,88.15
7203.00,88.15
7202.00,88.14
7201.00,88.14
7200.00,88.15
7199.00,88.16
7198.00,88.16
7197.00,88.17
7196.00,88.17
7195.00,88.18
7194.00,88.18
7193.00,88.19
7192.00,88.19
7191.00,88.18
7190.00,88.17
7189.00,88.16
7188.00,88.15
7187.00,88.13
7186.00,88.12
7185.00,88.11
7184.00,88.12
7183.00,88.12
7182.00,88.14
7181.00,88.15
7180.00,88.16
7179.00,88.16
7178.00,88.17
7177.00,88.17
7176.00,88.17
7175.00,88.16
7174.00,88.15
7173.00,88.13
7172.00,88.11
7171.00,88.09
7170.00,88.07
7169.00,88.05
7168.00,88.05
7167.00,88.04
7166.00,88.03
7165.00,88.03
7164.00,88.03
7163.00,88.03
7162.00,88.03
7161.00,88.02
7160.00,88.01
7159.00,88.01
7158.00,88.01
7157.00,88.01
7156.00,88.01
7155.00,88.00
7154.00,88.00
7153.00,88.00
7152.00,88.01
7151.00,88.01
7150.00,88.00
7149.00,88.00
7148.00,87.99
7147.00,87.99
7146.00,87.99
7145.00,88.00
7144.00,88.01
7143.00,88.01
7142.00,88.01
7141.00,88.02
7140.00,88.03
7139.00,88.04
7138.00,88.04
7137.00,88.05
7136.00,88.06
7135.00,88.08
7134.00,88.09
7133.00,88.09
7132.00,88.09
7131.00,88.08
7130.00,88.07
7129.00,88.05
7128.00,88.04
7127.00,88.03
7126.00,88.03
7125.00,88.03
7124.00,88.03
7123.00,88.04
7122.00,88.03
7121.00,88.02
7120.00,88.01
7119.00,88.01
7118.00,88.01
7117.00,88.01
7116.00,88.01
7115.00,88.00
7114.00,87.99
7113.00,87.99
7112.00,87.99
7111.00,87.99
7110.00,87.99
7109.00,87.99
7108.00,88.00
7107.00,88.01
7106.00,88.01
7105.00,88.00
7104.00,88.01
7103.00,88.01
7102.00,88.02
7101.00,88.03
7100.00,88.04
7099.00,88.04
7098.00,88.04
7097.00,88.04
7096.00,88.03
7095.00,88.02
7094.00,88.02
7093.00,88.03
7092.00,88.06
7091.00,88.07
7090.00,88.07
7089.00,88.07
7088.00,88.07
7087.00,88.05
7086.00,88.04
7085.00,88.02
7084.00,88.02
7083.00,88.02
7082.00,88.03
7081.00,88.03
7080.00,88.04
7079.00,88.04
7078.00,88.02
7077.00,88.01
7076.00,88.01
7075.00,88.02
7074.00,88.02
7073.00,88.03
7072.00,88.04
7071.00,88.04
7070.00,88.04
7069.00,88.05
7068.00,88.06
7067.00,88.06
7066.00,88.06
7065.00,88.06
7064.00,88.06
7063.00,88.05
7062.00,88.05
7061.00,88.04
7060.00,88.03
7059.00,88.02
7058.00,88.03
7057.00,88.06
7056.00,88.09
7055.00,88.10
7054.00,88.09
7053.00,88.09
7052.00,88.08
7051.00,88.06
7050.00,88.05
7049.00,88.04
7048.00,88.06
7047.00,88.08
7046.00,88.09
7045.00,88.10
7044.00,88.10
7043.00,88.09
7042.00,88.08
7041.00,88.07
7040.00,88.07
7039.00,88.08
7038.00,88.09
7037.00,88.10
7036.00,88.11
7035.00,88.11
7034.00,88.11
7033.00,88.11
7032.00,88.11
7031.00,88.11
7030.00,88.11
7029.00,88.13
7028.00,88.15
7027.00,88.16
7026.00,88.17
7025.00,88.18
7024.00,88.19
7023.00,88.19
7022.00,88.18
7021.00,88.18
7020.00,88.17
7019.00,88.17
7018.00,88.16
7017.00,88.15
7016.00,88.16
7015.00,88.17
7014.00,88.17
7013.00,88.19
7012.00,88.20
7011.00,88.21
7010.00,88.21
7009.00,88.22
7008.00,88.22
7007.00,88.22
7006.00,88.21
7005.00,88.21
7004.00,88.20
7003.00,88.20
7002.00,88.20
7001.00,88.20
7000.00,88.20
6999.00,88.20
6998.00,88.19
6997.00,88.19
6996.00,88.19
6995.00,88.19
6994.00,88.19
6993.00,88.19
6992.00,88.20
6991.00,88.20
6990.00,88.20
6989.00,88.20
6988.00,88.20
6987.00,88.19
6986.00,88.19
6985.00,88.19
6984.00,88.20
6983.00,88.21
6982.00,88.22
6981.00,88.22
6980.00,88.22
6979.00,88.21
6978.00,88.20
6977.00,88.20
6976.00,88.20
6975.00,88.20
6974.00,88.20
6973.00,88.21
6972.00,88.22
6971.00,88.22
6970.00,88.22
6969.00,88.22
6968.00,88.22
6967.00,88.22
6966.00,88.22
6965.00,88.23
6964.00,88.24
6963.00,88.25
6962.00,88.24
6961.00,88.25
6960.00,88.25
6959.00,88.25
6958.00,88.24
6957.00,88.24
6956.00,88.24
6955.00,88.25
6954.00,88.25
6953.00,88.25
6952.00,88.26
6951.00,88.27
6950.00,88.27
6949.00,88.27
6948.00,88.28
6947.00,88.28
6946.00,88.29
6945.00,88.29
6944.00,88.30
6943.00,88.29
6942.00,88.29
6941.00,88.28
6940.00,88.28
6939.00,88.28
6938.00,88.27
6937.00,88.27
6936.00,88.28
6935.00,88.29
6934.00,88.29
6933.00,88.29
6932.00,88.29
6931.00,88.29
6930.00,88.29
6929.00,88.30
6928.00,88.31
6927.00,88.33
6926.00,88.33
6925.00,88.33
6924.00,88.33
6923.00,88.33
6922.00,88.32
6921.00,88.32
6920.00,88.32
6919.00,88.32
6918.00,88.31
6917.00,88.32
6916.00,88.32
6915.00,88.32
6914.00,88.31
6913.00,88.32
6912.00,88.32
6911.00,88.33
6910.00,88.34
6909.00,88.35
6908.00,88.36
6907.00,88.35
6906.00,88.34
6905.00,88.35
6904.00,88.35
6903.00,88.35
6902.00,88.34
6901.00,88.35
6900.00,88.36
6899.00,88.38
6898.00,88.38
6897.00,88.39
6896.00,88.39
6895.00,88.39
6894.00,88.39
6893.00,88.39
6892.00,88.39
6891.00,88.39
6890.00,88.39
6889.00,88.39
6888.00,88.39
6887.00,88.39
6886.00,88.38
6885.00,88.38
6884.00,88.38
6883.00,88.39
6882.00,88.40
6881.00,88.41
6880.00,88.42
6879.00,88.42
6878.00,88.41
6877.00,88.41
6876.00,88.41
6875.00,88.40
6874.00,88.40
6873.00,88.40
6872.00,88.41
6871.00,88.42
6870.00,88.42
6869.00,88.43
6868.00,88.44
6867.00,88.45
6866.00,88.45
6865.00,88.45
6864.00,88.46
6863.00,88.46
6862.00,88.46
6861.00,88.45
6860.00,88.45
6859.00,88.45
6858.00,88.45
6857.00,88.45
6856.00,88.45
6855.00,88.46
6854.00,88.47
6853.00,88.48
6852.00,88.48
6851.00,88.48
6850.00,88.48
6849.00,88.49
6848.00,88.49
6847.00,88.50
6846.00,88.50
6845.00,88.51
6844.00,88.52
6843.00,88.52
6842.00,88.51
6841.00,88.51
6840.00,88.51
6839.00,88.51
6838.00,88.51
6837.00,88.51
6836.00,88.52
6835.00,88.53
6834.00,88.52
6833.00,88.51
6832.00,88.51
6831.00,88.50
6830.00,88.50
6829.00,88.50
6828.00,88.51
6827.00,88.52
6826.00,88.53
6825.00,88.53
6824.00,88.53
6823.00,88.52
6822.00,88.51
6821.00,88.51
6820.00,88.52
6819.00,88.52
6818.00,88.52
6817.00,88.54
6816.00,88.55
6815.00,88.55
6814.00,88.54
6813.00,88.53
6812.00,88.53
6811.00,88.53
6810.00,88.53
6809.00,88.53
6808.00,88.54
6807.00,88.54
6806.00,88.54
6805.00,88.54
6804.00,88.55
6803.00,88.55
6802.00,88.55
6801.00,88.56
6800.00,88.56
6799.00,88.56
6798.00,88.56
6797.00,88.55
6796.00,88.55
6795.00,88.54
6794.00,88.54
6793.00,88.53
6792.00,88.54
6791.00,88.54
6790.00,88.53
6789.00,88.54
6788.00,88.54
6787.00,88.54
6786.00,88.54
6785.00,88.55
6784.00,88.56
6783.00,88.57
6782.00,88.57
6781.00,88.58
6780.00,88.59
6779.00,88.59
6778.00,88.57
6777.00,88.56
6776.00,88.56
6775.00,88.57
6774.00,88.57
6773.00,88.57
6772.00,88.59
6771.00,88.60
6770.00,88.60
6769.00,88.60
6768.00,88.59
6767.00,88.59
6766.00,88.59
6765.00,88.59
6764.00,88.60
6763.00,88.61
6762.00,88.61
6761.00,88.61
6760.00,88.61
6759.00,88.61
6758.00,88.60
6757.00,88.60
6756.00,88.60
6755.00,88.60
6754.00,88.60
6753.00,88.61
6752.00,88.62
6751.00,88.63
6750.00,88.63
6749.00,88.63
6748.00,88.65
6747.00,88.66
6746.00,88.66
6745.00,88.65
6744.00,88.64
6743.00,88.64
6742.00,88.63
6741.00,88.62
6740.00,88.62
6739.00,88.62
6738.00,88.63
6737.00,88.64
6736.00,88.66
6735.00,88.66
6734.00,88.66
6733.00,88.67
6732.00,88.67
6731.00,88.67
6730.00,88.67
6729.00,88.67
6728.00,88.68
6727.00,88.68
6726.00,88.67
6725.00,88.68
6724.00,88.69
6723.00,88.68
6722.00,88.68
6721.00,88.68
6720.00,88.69
6719.00,88.70
6718.00,88.70
6717.00,88.70
6716.00,88.71
6715.00,88.70
6714.00,88.69
6713.00,88.69
6712.00,88.69
6711.00,88.69
6710.00,88.69
6709.00,88.69
6708.00,88.70
6707.00,88.71
6706.00,88.71
6705.00,88.71
6704.00,88.71
6703.00,88.71
6702.00,88.71
6701.00,88.71
6700.00,88.72
6699.00,88.73
6698.00,88.73
6697.00,88.74
6696.00,88.75
6695.00,88.75
6694.00,88.75
6693.00,88.75
6692.00,88.75
6691.00,88.75
6690.00,88.75
6689.00,88.75
6688.00,88.76
6687.00,88.76
6686.00,88.76
6685.00,88.76
6684.00,88.77
6683.00,88.77
6682.00,88.77
6681.00,88.78
6680.00,88.79
6679.00,88.79
6678.00,88.80
6677.00,88.80
6676.00,88.81
6675.00,88.81
6674.00,88.81
6673.00,88.82
6672.00,88.82
6671.00,88.82
6670.00,88.81
6669.00,88.81
6668.00,88.81
6667.00,88.80
6666.00,88.80
6665.00,88.80
6664.00,88.80
6663.00,88.81
6662.00,88.81
6661.00,88.81
6660.00,88.82
6659.00,88.81
6658.00,88.81
6657.00,88.81
6656.00,88.82
6655.00,88.83
6654.00,88.83
6653.00,88.83
6652.00,88.83
6651.00,88.84
6650.00,88.83
6649.00,88.82
6648.00,88.82
6647.00,88.83
6646.00,88.83
6645.00,88.84
6644.00,88.84
6643.00,88.84
6642.00,88.84
6641.00,88.84
6640.00,88.84
6639.00,88.83
6638.00,88.83
6637.00,88.84
6636.00,88.85
6635.00,88.85
6634.00,88.84
6633.00,88.84
6632.00,88.84
6631.00,88.84
6630.00,88.83
6629.00,88.83
6628.00,88.85
6627.00,88.85
6626.00,88.86
6625.00,88.86
6624.00,88.86
6623.00,88.85
6622.00,88.84
6621.00,88.84
6620.00,88.84
6619.00,88.85
6618.00,88.85
6617.00,88.86
6616.00,88.87
6615.00,88.87
6614.00,88.87
6613.00,88.87
6612.00,88.86
6611.00,88.85
6610.00,88.85
6609.00,88.86
6608.00,88.86
6607.00,88.86
6606.00,88.86
6605.00,88.86
6604.00,88.86
6603.00,88.86
6602.00,88.85
6601.00,88.86
6600.00,88.87
6599.00,88.88
6598.00,88.88
6597.00,88.88
6596.00,88.88
6595.00,88.88
6594.00,88.87
6593.00,88.87
6592.00,88.87
6591.00,88.88
6590.00,88.89
6589.00,88.90
6588.00,88.91
6587.00,88.91
6586.00,88.90
6585.00,88.89
6584.00,88.89
6583.00,88.89
6582.00,88.89
6581.00,88.90
6580.00,88.90
6579.00,88.91
6578.00,88.90
6577.00,88.90
6576.00,88.90
6575.00,88.90
6574.00,88.90
6573.00,88.91
6572.00,88.92
6571.00,88.92
6570.00,88.91
6569.00,88.91
6568.00,88.92
6567.00,88.92
6566.00,88.93
6565.00,88.93
6564.00,88.94
6563.00,88.94
6562.00,88.94
6561.00,88.93
6560.00,88.93
6559.00,88.93
6558.00,88.92
6557.00,88.92
6556.00,88.92
6555.00,88.92
6554.00,88.93
6553.00,88.94
6552.00,88.95
6551.00,88.96
6550.00,88.97
6549.00,88.97
6548.00,88.97
6547.00,88.96
6546.00,88.95
6545.00,88.95
6544.00,88.95
6543.00,88.95
6542.00,88.95
6541.00,88.96
6540.00,88.97
6539.00,88.97
6538.00,88.96
6537.00,88.96
6536.00,88.96
6535.00,88.97
6534.00,88.96
6533.00,88.96
6532.00,88.96
6531.00,88.96
6530.00,88.96
6529.00,88.96
6528.00,88.96
6527.00,88.97
6526.00,88.98
6525.00,88.98
6524.00,88.98
6523.00,88.98
6522.00,88.98
6521.00,88.97
6520.00,88.97
6519.00,88.97
6518.00,88.97
6517.00,88.99
6516.00,89.00
6515.00,88.99
6514.00,88.99
6513.00,88.99
6512.00,88.99
6511.00,88.99
6510.00,88.99
6509.00,88.99
6508.00,89.00
6507.00,89.01
6506.00,89.01
6505.00,89.02
6504.00,89.03
6503.00,89.04
6502.00,89.04
6501.00,89.04
6500.00,89.05
6499.00,89.05
6498.00,89.04
6497.00,89.04
6496.00,89.03
6495.00,89.03
6494.00,89.04
6493.00,89.04
6492.00,89.05
6491.00,89.05
6490.00,89.05
6489.00,89.06
6488.00,89.06
6487.00,89.05
6486.00,89.05
6485.00,89.05
6484.00,89.06
6483.00,89.06
6482.00,89.06
6481.00,89.06
6480.00,89.07
6479.00,89.08
6478.00,89.07
6477.00,89.07
6476.00,89.08
6475.00,89.09
6474.00,89.08
6473.00,89.07
6472.00,89.08
6471.00,89.08
6470.00,89.08
6469.00,89.07
6468.00,89.07
6467.00,89.07
6466.00,89.07
6465.00,89.06
6464.00,89.06
6463.00,89.05
6462.00,89.06
6461.00,89.06
6460.00,89.07
6459.00,89.07
6458.00,89.08
6457.00,89.09
6456.00,89.09
6455.00,89.09
6454.00,89.08
6453.00,89.08
6452.00,89.08
6451.00,89.07
6450.00,89.06
6449.00,89.05
6448.00,89.06
6447.00,89.06
6446.00,89.06
6445.00,89.06
6444.00,89.07
6443.00,89.08
6442.00,89.07
6441.00,89.07
6440.00,89.07
6439.00,89.07
6438.00,89.07
6437.00,89.07
6436.00,89.08
6435.00,89.08
6434.00,89.09
6433.00,89.09
6432.00,89.09
6431.00,89.08
6430.00,89.07
6429.00,89.07
6428.00,89.08
6427.00,89.08
6426.00,89.09
6425.00,89.10
6424.00,89.10
6423.00,89.10
6422.00,89.08
6421.00,89.08
6420.00,89.07
6419.00,89.07
6418.00,89.07
6417.00,89.07
6416.00,89.09
6415.00,89.10
6414.00,89.10
6413.00,89.10
6412.00,89.11
6411.00,89.11
6410.00,89.11
6409.00,89.11
6408.00,89.11
6407.00,89.11
6406.00,89.11
6405.00,89.12
6404.00,89.12
6403.00,89.13
6402.00,89.13
6401.00,89.13
6400.00,89.13
6399.00,89.13
6398.00,89.13
6397.00,89.12
6396.00,89.12
6395.00,89.12
6394.00,89.11
6393.00,89.11
6392.00,89.12
6391.00,89.11
6390.00,89.11
6389.00,89.12
6388.00,89.13
6387.00,89.13
6386.00,89.12
6385.00,89.12
6384.00,89.13
6383.00,89.13
6382.00,89.14
6381.00,89.14
6380.00,89.14
6379.00,89.14
6378.00,89.13
6377.00,89.12
6376.00,89.12
6375.00,89.12
6374.00,89.13
6373.00,89.14
6372.00,89.15
6371.00,89.15
6370.00,89.15
6369.00,89.15
6368.00,89.15
6367.00,89.15
6366.00,89.15
6365.00,89.16
6364.00,89.17
6363.00,89.17
6362.00,89.16
6361.00,89.16
6360.00,89.16
6359.00,89.16
6358.00,89.15
6357.00,89.15
6356.00,89.16
6355.00,89.17
6354.00,89.17
6353.00,89.17
6352.00,89.18
6351.00,89.18
6350.00,89.17
6349.00,89.17
6348.00,89.16
6347.00,89.16
6346.00,89.16
6345.00,89.17
6344.00,89.17
6343.00,89.17
6342.00,89.17
6341.00,89.17
6340.00,89.17
6339.00,89.17
6338.00,89.17
6337.00,89.18
6336.00,89.19
6335.00,89.19
6334.00,89.20
6333.00,89.20
6332.00,89.21
6331.00,89.20
6330.00,89.20
6329.00,89.20
6328.00,89.21
6327.00,89.21
6326.00,89.21
6325.00,89.20
6324.00,89.21
6323.00,89.20
6322.00,89.19
6321.00,89.19
6320.00,89.19
6319.00,89.20
6318.00,89.21
6317.00,89.21
6316.00,89.22
6315.00,89.23
6314.00,89.23
6313.00,89.23
6312.00,89.23
6311.00,89.23
6310.00,89.23
6309.00,89.24
6308.00,89.24
6307.00,89.23
6306.00,89.23
6305.00,89.23
6304.00,89.23
6303.00,89.23
6302.00,89.22
6301.00,89.23
6300.00,89.24
6299.00,89.24
6298.00,89.23
6297.00,89.23
6296.00,89.24
6295.00,89.24
6294.00,89.23
6293.00,89.23
6292.00,89.24
6291.00,89.25
6290.00,89.25
6289.00,89.24
6288.00,89.24
6287.00,89.24
6286.00,89.23
6285.00,89.22
6284.00,89.22
6283.00,89.23
6282.00,89.24
6281.00,89.24
6280.00,89.25
6279.00,89.24
6278.00,89.24
6277.00,89.23
6276.00,89.23
6275.00,89.22
6274.00,89.22
6273.00,89.23
6272.00,89.24
6271.00,89.23
6270.00,89.22
6269.00,89.22
6268.00,89.23
6267.00,89.24
6266.00,89.24
6265.00,89.24
6264.00,89.25
6263.00,89.25
6262.00,89.24
6261.00,89.23
6260.00,89.23
6259.00,89.23
6258.00,89.23
6257.00,89.23
6256.00,89.24
6255.00,89.24
6254.00,89.25
6253.00,89.25
6252.00,89.26
6251.00,89.26
6250.00,89.26
6249.00,89.26
6248.00,89.26
6247.00,89.25
6246.00,89.25
6245.00,89.25
6244.00,89.26
6243.00,89.25
6242.00,89.25
6241.00,89.25
6240.00,89.26
6239.00,89.25
6238.00,89.25
6237.00,89.26
6236.00,89.28
6235.00,89.28
6234.00,89.27
6233.00,89.26
6232.00,89.26
6231.00,89.26
6230.00,89.25
6229.00,89.25
6228.00,89.26
6227.00,89.27
6226.00,89.28
6225.00,89.27
6224.00,89.27
6223.00,89.27
6222.00,89.27
6221.00,89.27
6220.00,89.28
6219.00,89.28
6218.00,89.28
6217.00,89.29
6216.00,89.29
6215.00,89.28
6214.00,89.27
6213.00,89.27
6212.00,89.27
6211.00,89.27
6210.00,89.27
6209.00,89.27
6208.00,89.28
6207.00,89.29
6206.00,89.28
6205.00,89.28
6204.00,89.28
6203.00,89.28
6202.00,89.28
6201.00,89.28
6200.00,89.29
6199.00,89.30
6198.00,89.29
6197.00,89.29
6196.00,89.29
6195.00,89.29
6194.00,89.29
6193.00,89.29
6192.00,89.29
6191.00,89.30
6190.00,89.30
6189.00,89.30
6188.00,89.30
6187.00,89.29
6186.00,89.29
6185.00,89.29
6184.00,89.30
6183.00,89.30
6182.00,89.30
6181.00,89.31
6180.00,89.31
6179.00,89.30
6178.00,89.29
6177.00,89.28
6176.00,89.29
6175.00,89.30
6174.00,89.30
6173.00,89.30
6172.00,89.31
6171.00,89.32
6170.00,89.31
6169.00,89.31
6168.00,89.31
6167.00,89.31
6166.00,89.31
6165.00,89.32
6164.00,89.32
6163.00,89.32
6162.00,89.31
6161.00,89.31
6160.00,89.31
6159.00,89.31
6158.00,89.31
6157.00,89.32
6156.00,89.33
6155.00,89.33
6154.00,89.33
6153.00,89.33
6152.00,89.33
6151.00,89.32
6150.00,89.32
6149.00,89.33
6148.00,89.34
6147.00,89.35
6146.00,89.35
6145.00,89.36
6144.00,89.37
6143.00,89.37
6142.00,89.36
6141.00,89.36
6140.00,89.36
6139.00,89.37
6138.00,89.37
6137.00,89.37
6136.00,89.37
6135.00,89.37
6134.00,89.36
6133.00,89.36
6132.00,89.36
6131.00,89.36
6130.00,89.36
6129.00,89.37
6128.00,89.37
6127.00,89.37
6126.00,89.37
6125.00,89.37
6124.00,89.37
6123.00,89.36
6122.00,89.36
6121.00,89.36
6120.00,89.37
6119.00,89.37
6118.00,89.37
6117.00,89.38
6116.00,89.38
6115.00,89.38
6114.00,89.37
6113.00,89.37
6112.00,89.38
6111.00,89.38
6110.00,89.38
6109.00,89.39
6108.00,89.39
6107.00,89.39
6106.00,89.38
6105.00,89.36
6104.00,89.36
6103.00,89.35
6102.00,89.35
6101.00,89.36
6100.00,89.36
6099.00,89.36
6098.00,89.36
6097.00,89.36
6096.00,89.36
6095.00,89.36
6094.00,89.36
6093.00,89.37
6092.00,89.37
6091.00,89.37
6090.00,89.37
6089.00,89.37
6088.00,89.37
6087.00,89.37
6086.00,89.37
6085.00,89.37
6084.00,89.38
6083.00,89.38
6082.00,89.37
6081.00,89.37
6080.00,89.37
6079.00,89.37
6078.00,89.36
6077.00,89.36
6076.00,89.37
6075.00,89.37
6074.00,89.37
6073.00,89.37
6072.00,89.37
6071.00,89.37
6070.00,89.36
6069.00,89.36
6068.00,89.36
6067.00,89.37
6066.00,89.38
6065.00,89.39
6064.00,89.40
6063.00,89.40
6062.00,89.39
6061.00,89.39
6060.00,89.39
6059.00,89.38
6058.00,89.38
6057.00,89.39
6056.00,89.40
6055.00,89.40
6054.00,89.39
6053.00,89.38
6052.00,89.38
6051.00,89.38
6050.00,89.38
6049.00,89.38
6048.00,89.40
6047.00,89.41
6046.00,89.41
6045.00,89.41
6044.00,89.41
6043.00,89.40
6042.00,89.40
6041.00,89.39
6040.00,89.39
6039.00,89.40
6038.00,89.41
6037.00,89.41
6036.00,89.42
6035.00,89.41
6034.00,89.41
6033.00,89.41
6032.00,89.41
6031.00,89.41
6030.00,89.41
6029.00,89.42
6028.00,89.43
6027.00,89.42
6026.00,89.41
6025.00,89.41
6024.00,89.41
6023.00,89.40
6022.00,89.40
6021.00,89.40
6020.00,89.41
6019.00,89.42
6018.00,89.42
6017.00,89.42
6016.00,89.42
6015.00,89.42
6014.00,89.42
6013.00,89.42
6012.00,89.42
6011.00,89.42
6010.00,89.43
6009.00,89.43
6008.00,89.43
6007.00,89.42
6006.00,89.41
6005.00,89.41
6004.00,89.42
6003.00,89.42
6002.00,89.42
6001.00,89.43
6000.00,89.44
5999.00,89.43
5998.00,89.43
5997.00,89.43
5996.00,89.43
5995.00,89.43
5994.00,89.43
5993.00,89.43
5992.00,89.44
5991.00,89.44
5990.00,89.44
5989.00,89.43
5988.00,89.44
5987.00,89.44
5986.00,89.44
5985.00,89.44
5984.00,89.45
5983.00,89.45
5982.00,89.46
5981.00,89.46
5980.00,89.45
5979.00,89.45
5978.00,89.45
5977.00,89.45
5976.00,89.46
5975.00,89.47
5974.00,89.47
5973.00,89.48
5972.00,89.49
5971.00,89.48
5970.00,89.48
5969.00,89.48
5968.00,89.48
5967.00,89.48
5966.00,89.48
5965.00,89.48
5964.00,89.49
5963.00,89.49
5962.00,89.48
5961.00,89.48
5960.00,89.49
5959.00,89.49
5958.00,89.49
5957.00,89.49
5956.00,89.49
5955.00,89.50
5954.00,89.50
5953.00,89.50
5952.00,89.50
5951.00,89.50
5950.00,89.50
5949.00,89.50
5948.00,89.50
5947.00,89.51
5946.00,89.51
5945.00,89.51
5944.00,89.51
5943.00,89.51
5942.00,89.51
5941.00,89.52
5940.00,89.52
5939.00,89.52
5938.00,89.52
5937.00,89.53
5936.00,89.54
5935.00,89.53
5934.00,89.53
5933.00,89.53
5932.00,89.54
5931.00,89.54
5930.00,89.54
5929.00,89.54
5928.00,89.56
5927.00,89.56
5926.00,89.56
5925.00,89.55
5924.00,89.55
5923.00,89.55
5922.00,89.54
5921.00,89.54
5920.00,89.54
5919.00,89.55
5918.00,89.55
5917.00,89.55
5916.00,89.55
5915.00,89.55
5914.00,89.55
5913.00,89.55
5912.00,89.56
5911.00,89.56
5910.00,89.56
5909.00,89.57
5908.00,89.57
5907.00,89.57
5906.00,89.56
5905.00,89.56
5904.00,89.56
5903.00,89.56
5902.00,89.56
5901.00,89.56
5900.00,89.57
5899.00,89.57
5898.00,89.56
5897.00,89.56
5896.00,89.56
5895.00,89.57
5894.00,89.57
5893.00,89.57
5892.00,89.57
5891.00,89.57
5890.00,89.56
5889.00,89.56
5888.00,89.56
5887.00,89.56
5886.00,89.57
5885.00,89.57
5884.00,89.58
5883.00,89.58
5882.00,89.59
5881.00,89.59
5880.00,89.59
5879.00,89.58
5878.00,89.58
5877.00,89.58
5876.00,89.59
5875.00,89.59
5874.00,89.59
5873.00,89.60
5872.00,89.61
5871.00,89.61
5870.00,89.60
5869.00,89.60
5868.00,89.61
5867.00,89.62
5866.00,89.62
5865.00,89.63
5864.00,89.63
5863.00,89.64
5862.00,89.64
5861.00,89.64
5860.00,89.63
5859.00,89.63
5858.00,89.63
5857.00,89.63
5856.00,89.63
5855.00,89.63
5854.00,89.64
5853.00,89.64
5852.00,89.64
5851.00,89.64
5850.00,89.64
5849.00,89.65
5848.00,89.65
5847.00,89.65
5846.00,89.65
5845.00,89.65
5844.00,89.65
5843.00,89.64
5842.00,89.64
5841.00,89.64
5840.00,89.64
5839.00,89.64
5838.00,89.64
5837.00,89.63
5836.00,89.63
5835.00,89.62
5834.00,89.62
5833.00,89.61
5832.00,89.61
5831.00,89.62
5830.00,89.62
5829.00,89.63
5828.00,89.63
5827.00,89.63
5826.00,89.63
5825.00,89.62
5824.00,89.61
5823.00,89.61
5822.00,89.60
5821.00,89.61
5820.00,89.61
5819.00,89.61
5818.00,89.61
5817.00,89.61
5816.00,89.61
5815.00,89.60
5814.00,89.59
5813.00,89.59
5812.00,89.60
5811.00,89.60
5810.00,89.60
5809.00,89.60
5808.00,89.60
5807.00,89.61
5806.00,89.60
5805.00,89.60
5804.00,89.60
5803.00,89.61
5802.00,89.62
5801.00,89.62
5800.00,89.62
5799.00,89.61
5798.00,89.61
5797.00,89.60
5796.00,89.60
5795.00,89.60
5794.00,89.61
5793.00,89.61
5792.00,89.62
5791.00,89.61
5790.00,89.61
5789.00,89.60
5788.00,89.60
5787.00,89.60
5786.00,89.60
5785.00,89.61
5784.00,89.62
5783.00,89.62
5782.00,89.61
5781.00,89.61
5780.00,89.61
5779.00,89.60
5778.00,89.60
5777.00,89.60
5776.00,89.60
5775.00,89.61
5774.00,89.61
5773.00,89.60
5772.00,89.60
5771.00,89.60
5770.00,89.60
5769.00,89.60
5768.00,89.60
5767.00,89.61
5766.00,89.61
5765.00,89.61
5764.00,89.61
5763.00,89.60
5762.00,89.60
5761.00,89.60
5760.00,89.60
5759.00,89.60
5758.00,89.60
5757.00,89.61
5756.00,89.61
5755.00,89.61
5754.00,89.60
5753.00,89.60
5752.00,89.60
5751.00,89.61
5750.00,89.60
5749.00,89.61
5748.00,89.62
5747.00,89.63
5746.00,89.62
5745.00,89.62
5744.00,89.62
5743.00,89.62
5742.00,89.63
5741.00,89.63
5740.00,89.63
5739.00,89.64
5738.00,89.64
5737.00,89.63
5736.00,89.62
5735.00,89.62
5734.00,89.62
5733.00,89.62
5732.00,89.62
5731.00,89.62
5730.00,89.63
5729.00,89.63
5728.00,89.63
5727.00,89.62
5726.00,89.62
5725.00,89.62
5724.00,89.63
5723.00,89.63
5722.00,89.63
5721.00,89.64
5720.00,89.64
5719.00,89.64
5718.00,89.64
5717.00,89.64
5716.00,89.64
5715.00,89.65
5714.00,89.64
5713.00,89.64
5712.00,89.65
5711.00,89.65
5710.00,89.65
5709.00,89.65
5708.00,89.65
5707.00,89.65
5706.00,89.65
5705.00,89.65
5704.00,89.65
5703.00,89.65
5702.00,89.65
5701.00,89.65
5700.00,89.64
5699.00,89.63
5698.00,89.63
5697.00,89.63
5696.00,89.64
5695.00,89.63
5694.00,89.63
5693.00,89.63
5692.00,89.63
5691.00,89.63
5690.00,89.62
5689.00,89.63
5688.00,89.63
5687.00,89.63
5686.00,89.63
5685.00,89.62
5684.00,89.62
5683.00,89.62
5682.00,89.62
5681.00,89.61
5680.00,89.61
5679.00,89.62
5678.00,89.62
5677.00,89.62
5676.00,89.62
5675.00,89.62
5674.00,89.62
5673.00,89.61
5672.00,89.61
5671.00,89.61
5670.00,89.61
5669.00,89.61
5668.00,89.62
5667.00,89.61
5666.00,89.61
5665.00,89.61
5664.00,89.61
5663.00,89.61
5662.00,89.60
5661.00,89.60
5660.00,89.61
5659.00,89.61
5658.00,89.60
5657.00,89.60
5656.00,89.61
5655.00,89.61
5654.00,89.61
5653.00,89.61
5652.00,89.61
5651.00,89.62
5650.00,89.61
5649.00,89.61
5648.00,89.60
5647.00,89.60
5646.00,89.60
5645.00,89.60
5644.00,89.60
5643.00,89.60
5642.00,89.61
5641.00,89.61
5640.00,89.62
5639.00,89.61
5638.00,89.61
5637.00,89.62
5636.00,89.62
5635.00,89.61
5634.00,89.60
5633.00,89.61
5632.00,89.61
5631.00,89.61
5630.00,89.61
5629.00,89.61
5628.00,89.61
5627.00,89.62
5626.00,89.61
5625.00,89.61
5624.00,89.62
5623.00,89.63
5622.00,89.63
5621.00,89.63
5620.00,89.63
5619.00,89.63
5618.00,89.62
5617.00,89.62
5616.00,89.62
5615.00,89.63
5614.00,89.63
5613.00,89.63
5612.00,89.63
5611.00,89.63
5610.00,89.63
5609.00,89.63
5608.00,89.63
5607.00,89.63
5606.00,89.63
5605.00,89.64
5604.00,89.64
5603.00,89.64
5602.00,89.63
5601.00,89.63
5600.00,89.64
5599.00,89.63
5598.00,89.63
5597.00,89.63
5596.00,89.64
5595.00,89.64
5594.00,89.64
5593.00,89.64
5592.00,89.64
5591.00,89.64
5590.00,89.63
5589.00,89.63
5588.00,89.63
5587.00,89.64
5586.00,89.64
5585.00,89.64
5584.00,89.64
5583.00,89.63
5582.00,89.63
5581.00,89.63
5580.00,89.62
5579.00,89.63
5578.00,89.63
5577.00,89.63
5576.00,89.63
5575.00,89.63
5574.00,89.62
5573.00,89.62
5572.00,89.63
5571.00,89.63
5570.00,89.62
5569.00,89.63
5568.00,89.64
5567.00,89.64
5566.00,89.63
5565.00,89.63
5564.00,89.63
5563.00,89.63
5562.00,89.63
5561.00,89.63
5560.00,89.63
5559.00,89.63
5558.00,89.63
5557.00,89.62
5556.00,89.61
5555.00,89.61
5554.00,89.61
5553.00,89.62
5552.00,89.62
5551.00,89.63
5550.00,89.63
5549.00,89.63
5548.00,89.63
5547.00,89.62
5546.00,89.61
5545.00,89.61
5544.00,89.61
5543.00,89.62
5542.00,89.62
5541.00,89.63
5540.00,89.64
5539.00,89.63
5538.00,89.62
5537.00,89.62
5536.00,89.62
5535.00,89.63
5534.00,89.63
5533.00,89.63
5532.00,89.64
5531.00,89.64
5530.00,89.64
5529.00,89.63
5528.00,89.63
5527.00,89.63
5526.00,89.63
5525.00,89.64
5524.00,89.64
5523.00,89.65
5522.00,89.65
5521.00,89.64
5520.00,89.64
5519.00,89.63
5518.00,89.63
5517.00,89.63
5516.00,89.64
5515.00,89.64
5514.00,89.64
5513.00,89.64
5512.00,89.65
5511.00,89.64
5510.00,89.64
5509.00,89.64
5508.00,89.65
5507.00,89.65
5506.00,89.65
5505.00,89.65
5504.00,89.65
5503.00,89.65
5502.00,89.65
5501.00,89.64
5500.00,89.64
5499.00,89.65
5498.00,89.65
5497.00,89.65
5496.00,89.66
5495.00,89.67
5494.00,89.67
5493.00,89.67
5492.00,89.66
5491.00,89.66
5490.00,89.65
5489.00,89.65
5488.00,89.65
5487.00,89.65
5486.00,89.65
5485.00,89.65
5484.00,89.65
5483.00,89.64
5482.00,89.65
5481.00,89.66
5480.00,89.67
5479.00,89.67
5478.00,89.67
5477.00,89.67
5476.00,89.67
5475.00,89.66
5474.00,89.65
5473.00,89.64
5472.00,89.65
5471.00,89.65
5470.00,89.66
5469.00,89.65
5468.00,89.66
5467.00,89.66
5466.00,89.66
5465.00,89.66
5464.00,89.66
5463.00,89.66
5462.00,89.67
5461.00,89.66
5460.00,89.66
5459.00,89.65
5458.00,89.65
5457.00,89.65
5456.00,89.65
5455.00,89.65
5454.00,89.65
5453.00,89.66
5452.00,89.67
5451.00,89.67
5450.00,89.67
5449.00,89.68
5448.00,89.68
5447.00,89.67
5446.00,89.67
5445.00,89.67
5444.00,89.68
5443.00,89.69
5442.00,89.69
5441.00,89.68
5440.00,89.68
5439.00,89.68
5438.00,89.67
5437.00,89.67
5436.00,89.68
5435.00,89.68
5434.00,89.68
5433.00,89.67
5432.00,89.66
5431.00,89.66
5430.00,89.66
5429.00,89.66
5428.00,89.67
5427.00,89.67
5426.00,89.67
5425.00,89.68
5424.00,89.68
5423.00,89.68
5422.00,89.67
5421.00,89.68
5420.00,89.68
5419.00,89.67
5418.00,89.66
5417.00,89.66
5416.00,89.66
5415.00,89.66
5414.00,89.65
5413.00,89.65
5412.00,89.66
5411.00,89.66
5410.00,89.67
5409.00,89.67
5408.00,89.67
5407.00,89.68
5406.00,89.68
5405.00,89.67
5404.00,89.67
5403.00,89.67
5402.00,89.67
5401.00,89.67
5400.00,89.67
5399.00,89.67
5398.00,89.67
5397.00,89.67
5396.00,89.67
5395.00,89.66
5394.00,89.67
5393.00,89.67
5392.00,89.67
5391.00,89.67
5390.00,89.67
5389.00,89.67
5388.00,89.68
5387.00,89.67
5386.00,89.67
5385.00,89.67
5384.00,89.67
5383.00,89.67
5382.00,89.66
5381.00,89.66
5380.00,89.66
5379.00,89.66
5378.00,89.66
5377.00,89.66
5376.00,89.66
5375.00,89.67
5374.00,89.67
5373.00,89.67
5372.00,89.67
5371.00,89.68
5370.00,89.68
5369.00,89.68
5368.00,89.68
5367.00,89.69
5366.00,89.69
5365.00,89.69
5364.00,89.69
5363.00,89.69
5362.00,89.69
5361.00,89.69
5360.00,89.69
5359.00,89.69
5358.00,89.69
5357.00,89.69
5356.00,89.70
5355.00,89.70
5354.00,89.69
5353.00,89.69
5352.00,89.70
5351.00,89.70
5350.00,89.70
5349.00,89.69
5348.00,89.70
5347.00,89.70
5346.00,89.69
5345.00,89.69
5344.00,89.69
5343.00,89.70
5342.00,89.69
5341.00,89.68
5340.00,89.68
5339.00,89.68
5338.00,89.68
5337.00,89.69
5336.00,89.69
5335.00,89.69
5334.00,89.70
5333.00,89.70
5332.00,89.69
5331.00,89.68
5330.00,89.67
5329.00,89.68
5328.00,89.69
5327.00,89.69
5326.00,89.70
5325.00,89.70
5324.00,89.70
5323.00,89.69
5322.00,89.68
5321.00,89.68
5320.00,89.69
5319.00,89.70
5318.00,89.70
5317.00,89.70
5316.00,89.71
5315.00,89.71
5314.00,89.71
5313.00,89.70
5312.00,89.69
5311.00,89.69
5310.00,89.69
5309.00,89.69
5308.00,89.69
5307.00,89.70
5306.00,89.70
5305.00,89.69
5304.00,89.69
5303.00,89.69
5302.00,89.69
5301.00,89.70
5300.00,89.70
5299.00,89.70
5298.00,89.70
5297.00,89.70
5296.00,89.69
5295.00,89.69
5294.00,89.68
5293.00,89.69
5292.00,89.70
5291.00,89.70
5290.00,89.70
5289.00,89.70
5288.00,89.69
5287.00,89.69
5286.00,89.68
5285.00,89.68
5284.00,89.68
5283.00,89.69
5282.00,89.69
5281.00,89.70
5280.00,89.70
5279.00,89.70
5278.00,89.70
5277.00,89.70
5276.00,89.70
5275.00,89.70
5274.00,89.70
5273.00,89.70
5272.00,89.70
5271.00,89.69
5270.00,89.69
5269.00,89.69
5268.00,89.69
5267.00,89.68
5266.00,89.68
5265.00,89.69
5264.00,89.70
5263.00,89.70
5262.00,89.70
5261.00,89.70
5260.00,89.70
5259.00,89.70
5258.00,89.69
5257.00,89.69
5256.00,89.70
5255.00,89.71
5254.00,89.71
5253.00,89.70
5252.00,89.69
5251.00,89.69
5250.00,89.69
5249.00,89.69
5248.00,89.69
5247.00,89.70
5246.00,89.70
5245.00,89.71
5244.00,89.70
5243.00,89.70
5242.00,89.69
5241.00,89.69
5240.00,89.69
5239.00,89.68
5238.00,89.69
5237.00,89.69
5236.00,89.69
5235.00,89.69
5234.00,89.68
5233.00,89.68
5232.00,89.69
5231.00,89.69
5230.00,89.69
5229.00,89.69
5228.00,89.70
5227.00,89.70
5226.00,89.70
5225.00,89.69
5224.00,89.68
5223.00,89.68
5222.00,89.68
5221.00,89.68
5220.00,89.68
5219.00,89.69
5218.00,89.69
5217.00,89.69
5216.00,89.68
5215.00,89.68
5214.00,89.68
5213.00,89.69
5212.00,89.70
5211.00,89.70
5210.00,89.71
5209.00,89.71
5208.00,89.71
5207.00,89.71
5206.00,89.70
5205.00,89.69
5204.00,89.69
5203.00,89.69
5202.00,89.69
5201.00,89.69
5200.00,89.70
5199.00,89.70
5198.00,89.69
5197.00,89.68
5196.00,89.69
5195.00,89.69
5194.00,89.69
5193.00,89.69
5192.00,89.69
5191.00,89.70
5190.00,89.69
5189.00,89.69
5188.00,89.69
5187.00,89.69
5186.00,89.70
5185.00,89.70
5184.00,89.70
5183.00,89.70
5182.00,89.70
5181.00,89.70
5180.00,89.69
5179.00,89.69
5178.00,89.69
5177.00,89.69
5176.00,89.70
5175.00,89.70
5174.00,89.71
5173.00,89.71
5172.00,89.71
5171.00,89.71
5170.00,89.70
5169.00,89.70
5168.00,89.71
5167.00,89.71
5166.00,89.71
5165.00,89.71
5164.00,89.71
5163.00,89.71
5162.00,89.70
5161.00,89.70
5160.00,89.70
5159.00,89.71
5158.00,89.72
5157.00,89.72
5156.00,89.72
5155.00,89.72
5154.00,89.72
5153.00,89.71
5152.00,89.71
5151.00,89.71
5150.00,89.71
5149.00,89.72
5148.00,89.72
5147.00,89.72
5146.00,89.72
5145.00,89.72
5144.00,89.72
5143.00,89.72
5142.00,89.71
5141.00,89.72
5140.00,89.73
5139.00,89.73
5138.00,89.73
5137.00,89.73
5136.00,89.73
5135.00,89.73
5134.00,89.72
5133.00,89.72
5132.00,89.72
5131.00,89.73
5130.00,89.73
5129.00,89.73
5128.00,89.73
5127.00,89.74
5126.00,89.73
5125.00,89.73
5124.00,89.73
5123.00,89.73
5122.00,89.74
5121.00,89.74
5120.00,89.74
5119.00,89.74
5118.00,89.74
5117.00,89.74
5116.00,89.74
5115.00,89.73
5114.00,89.73
5113.00,89.74
5112.00,89.74
5111.00,89.73
5110.00,89.73
5109.00,89.73
5108.00,89.73
5107.00,89.73
5106.00,89.72
5105.00,89.73
5104.00,89.74
5103.00,89.74
5102.00,89.74
5101.00,89.74
5100.00,89.74
5099.00,89.73
5098.00,89.73
5097.00,89.73
5096.00,89.73
5095.00,89.74
5094.00,89.75
5093.00,89.75
5092.00,89.74
5091.00,89.74
5090.00,89.73
5089.00,89.73
5088.00,89.74
5087.00,89.74
5086.00,89.74
5085.00,89.75
5084.00,89.75
5083.00,89.75
5082.00,89.74
5081.00,89.74
5080.00,89.74
5079.00,89.75
5078.00,89.75
5077.00,89.75
5076.00,89.76
5075.00,89.76
5074.00,89.75
5073.00,89.75
5072.00,89.75
5071.00,89.75
5070.00,89.75
5069.00,89.75
5068.00,89.75
5067.00,89.76
5066.00,89.76
5065.00,89.75
5064.00,89.74
5063.00,89.74
5062.00,89.74
5061.00,89.74
5060.00,89.75
5059.00,89.75
5058.00,89.76
5057.00,89.76
5056.00,89.75
5055.00,89.75
5054.00,89.74
5053.00,89.74
5052.00,89.75
5051.00,89.75
5050.00,89.75
5049.00,89.75
5048.00,89.75
5047.00,89.75
5046.00,89.74
5045.00,89.74
5044.00,89.74
5043.00,89.74
5042.00,89.75
5041.00,89.75
5040.00,89.75
5039.00,89.76
5038.00,89.75
5037.00,89.74
5036.00,89.74
5035.00,89.75
5034.00,89.75
5033.00,89.75
5032.00,89.75
5031.00,89.75
5030.00,89.75
5029.00,89.75
5028.00,89.75
5027.00,89.74
5026.00,89.74
5025.00,89.74
5024.00,89.74
5023.00,89.74
5022.00,89.74
5021.00,89.74
5020.00,89.74
5019.00,89.73
5018.00,89.73
5017.00,89.73
5016.00,89.74
5015.00,89.74
5014.00,89.74
5013.00,89.74
5012.00,89.74
5011.00,89.74
5010.00,89.73
5009.00,89.73
5008.00,89.74
5007.00,89.75
5006.00,89.75
5005.00,89.75
5004.00,89.75
5003.00,89.75
5002.00,89.75
5001.00,89.74
5000.00,89.74
4999.00,89.75
4998.00,89.75
4997.00,89.76
4996.00,89.76
4995.00,89.75
4994.00,89.75
4993.00,89.74
4992.00,89.74
4991.00,89.74
4990.00,89.74
4989.00,89.75
4988.00,89.76
4987.00,89.76
4986.00,89.75
4985.00,89.75
4984.00,89.75
4983.00,89.75
4982.00,89.75
4981.00,89.75
4980.00,89.76
4979.00,89.77
4978.00,89.77
4977.00,89.76
4976.00,89.76
4975.00,89.76
4974.00,89.75
4973.00,89.75
4972.00,89.76
4971.00,89.76
4970.00,89.77
4969.00,89.77
4968.00,89.76
4967.00,89.75
4966.00,89.75
4965.00,89.75
4964.00,89.75
4963.00,89.76
4962.00,89.76
4961.00,89.76
4960.00,89.76
4959.00,89.76
4958.00,89.75
4957.00,89.75
4956.00,89.76
4955.00,89.76
4954.00,89.76
4953.00,89.76
4952.00,89.76
4951.00,89.76
4950.00,89.76
4949.00,89.75
4948.00,89.75
4947.00,89.75
4946.00,89.75
4945.00,89.76
4944.00,89.76
4943.00,89.76
4942.00,89.76
4941.00,89.76
4940.00,89.76
4939.00,89.76
4938.00,89.75
4937.00,89.75
4936.00,89.76
4935.00,89.76
4934.00,89.76
4933.00,89.76
4932.00,89.76
4931.00,89.76
4930.00,89.75
4929.00,89.76
4928.00,89.76
4927.00,89.76
4926.00,89.76
4925.00,89.76
4924.00,89.77
4923.00,89.76
4922.00,89.75
4921.00,89.75
4920.00,89.76
4919.00,89.76
4918.00,89.76
4917.00,89.76
4916.00,89.77
4915.00,89.77
4914.00,89.76
4913.00,89.76
4912.00,89.76
4911.00,89.76
4910.00,89.77
4909.00,89.77
4908.00,89.78
4907.00,89.77
4906.00,89.77
4905.00,89.76
4904.00,89.76
4903.00,89.76
4902.00,89.76
4901.00,89.77
4900.00,89.77
4899.00,89.77
4898.00,89.77
4897.00,89.77
4896.00,89.77
4895.00,89.76
4894.00,89.76
4893.00,89.76
4892.00,89.77
4891.00,89.77
4890.00,89.77
4889.00,89.77
4888.00,89.77
4887.00,89.76
4886.00,89.76
4885.00,89.76
4884.00,89.76
4883.00,89.77
4882.00,89.77
4881.00,89.77
4880.00,89.77
4879.00,89.77
4878.00,89.76
4877.00,89.76
4876.00,89.76
4875.00,89.76
4874.00,89.77
4873.00,89.77
4872.00,89.77
4871.00,89.77
4870.00,89.77
4869.00,89.77
4868.00,89.76
4867.00,89.76
4866.00,89.76
4865.00,89.76
4864.00,89.77
4863.00,89.77
4862.00,89.77
4861.00,89.77
4860.00,89.77
4859.00,89.76
4858.00,89.76
4857.00,89.76
4856.00,89.76
4855.00,89.77
4854.00,89.77
4853.00,89.76
4852.00,89.76
4851.00,89.76
4850.00,89.76
4849.00,89.76
4848.00,89.77
4847.00,89.77
4846.00,89.77
4845.00,89.77
4844.00,89.76
4843.00,89.75
4842.00,89.75
4841.00,89.75
4840.00,89.75
4839.00,89.75
4838.00,89.76
4837.00,89.76
4836.00,89.76
4835.00,89.75
4834.00,89.75
4833.00,89.75
4832.00,89.75
4831.00,89.75
4830.00,89.76
4829.00,89.76
4828.00,89.76
4827.00,89.76
4826.00,89.75
4825.00,89.75
4824.00,89.75
4823.00,89.75
4822.00,89.76
4821.00,89.76
4820.00,89.76
4819.00,89.76
4818.00,89.76
4817.00,89.76
4816.00,89.75
4815.00,89.75
4814.00,89.75
4813.00,89.76
4812.00,89.76
4811.00,89.76
4810.00,89.76
4809.00,89.76
4808.00,89.76
4807.00,89.76
4806.00,89.76
4805.00,89.76
4804.00,89.76
4803.00,89.76
4802.00,89.76
4801.00,89.76
4800.00,89.77
4799.00,89.76
4798.00,89.76
4797.00,89.76
4796.00,89.76
4795.00,89.76
4794.00,89.76
4793.00,89.76
4792.00,89.76
4791.00,89.76
4790.00,89.76
4789.00,89.76
4788.00,89.76
4787.00,89.76
4786.00,89.76
4785.00,89.77
4784.00,89.76
4783.00,89.76
4782.00,89.76
4781.00,89.76
4780.00,89.76
4779.00,89.76
4778.00,89.76
4777.00,89.76
4776.00,89.77
4775.00,89.77
4774.00,89.77
4773.00,89.77
4772.00,89.77
4771.00,89.77
4770.00,89.77
4769.00,89.77
4768.00,89.78
4767.00,89.78
4766.00,89.78
4765.00,89.79
4764.00,89.79
4763.00,89.79
4762.00,89.80
4761.00,89.80
4760.00,89.81
4759.00,89.82
4758.00,89.83
4757.00,89.84
4756.00,89.84
4755.00,89.84
4754.00,89.85
4753.00,89.85
4752.00,89.85
4751.00,89.86
4750.00,89.87
4749.00,89.87
4748.00,89.87
4747.00,89.88
4746.00,89.88
4745.00,89.88
4744.00,89.89
4743.00,89.90
4742.00,89.90
4741.00,89.91
4740.00,89.92
4739.00,89.92
4738.00,89.92
4737.00,89.93
4736.00,89.93
4735.00,89.93
4734.00,89.94
4733.00,89.94
4732.00,89.94
4731.00,89.95
4730.00,89.95
4729.00,89.95
4728.00,89.95
4727.00,89.95
4726.00,89.95
4725.00,89.95
4724.00,89.95
4723.00,89.95
4722.00,89.95
4721.00,89.95
4720.00,89.95
4719.00,89.95
4718.00,89.95
4717.00,89.95
4716.00,89.95
4715.00,89.95
4714.00,89.95
4713.00,89.95
4712.00,89.94
4711.00,89.94
4710.00,89.93
4709.00,89.93
4708.00,89.93
4707.00,89.92
4706.00,89.92
4705.00,89.91
4704.00,89.90
4703.00,89.90
4702.00,89.88
4701.00,89.87
4700.00,89.87
4699.00,89.86
4698.00,89.86
4697.00,89.86
4696.00,89.86
4695.00,89.87
4694.00,89.87
4693.00,89.88
4692.00,89.88
4691.00,89.89
4690.00,89.89
4689.00,89.90
4688.00,89.90
4687.00,89.90
4686.00,89.90
4685.00,89.90
4684.00,89.90
4683.00,89.90
4682.00,89.90
4681.00,89.90
4680.00,89.90
4679.00,89.90
4678.00,89.90
4677.00,89.90
4676.00,89.89
4675.00,89.89
4674.00,89.89
4673.00,89.89
4672.00,89.89
4671.00,89.89
4670.00,89.89
4669.00,89.88
4668.00,89.88
4667.00,89.88
4666.00,89.88
4665.00,89.87
4664.00,89.87
4663.00,89.87
4662.00,89.87
4661.00,89.87
4660.00,89.87
4659.00,89.87
4658.00,89.86
4657.00,89.86
4656.00,89.86
4655.00,89.85
4654.00,89.85
4653.00,89.85
4652.00,89.84
4651.00,89.84
4650.00,89.83
4649.00,89.83
4648.00,89.83
4647.00,89.83
4646.00,89.83
4645.00,89.83
4644.00,89.83
4643.00,89.82
4642.00,89.82
4641.00,89.81
4640.00,89.81
4639.00,89.81
4638.00,89.80
4637.00,89.80
4636.00,89.80
4635.00,89.79
4634.00,89.79
4633.00,89.78
4632.00,89.78
4631.00,89.77
4630.00,89.77
4629.00,89.76
4628.00,89.76
4627.00,89.76
4626.00,89.76
4625.00,89.75
4624.00,89.74
4623.00,89.74
4622.00,89.73
4621.00,89.73
4620.00,89.73
4619.00,89.72
4618.00,89.72
4617.00,89.71
4616.00,89.71
4615.00,89.71
4614.00,89.70
4613.00,89.69
4612.00,89.69
4611.00,89.69
4610.00,89.68
4609.00,89.68
4608.00,89.67
4607.00,89.67
4606.00,89.66
4605.00,89.66
4604.00,89.66
4603.00,89.65
4602.00,89.65
4601.00,89.64
4600.00,89.64
4599.00,89.63
4598.00,89.62
4597.00,89.62
4596.00,89.62
4595.00,89.61
4594.00,89.61
4593.00,89.61
4592.00,89.60
4591.00,89.60
4590.00,89.59
4589.00,89.58
4588.00,89.58
4587.00,89.57
4586.00,89.56
4585.00,89.56
4584.00,89.55
4583.00,89.55
4582.00,89.54
4581.00,89.54
4580.00,89.53
4579.00,89.53
4578.00,89.52
4577.00,89.51
4576.00,89.51
4575.00,89.50
4574.00,89.50
4573.00,89.49
4572.00,89.48
4571.00,89.47
4570.00,89.46
4569.00,89.45
4568.00,89.45
4567.00,89.45
4566.00,89.44
4565.00,89.44
4564.00,89.43
4563.00,89.43
4562.00,89.42
4561.00,89.41
4560.00,89.41
4559.00,89.41
4558.00,89.40
4557.00,89.40
4556.00,89.40
4555.00,89.40
4554.00,89.39
4553.00,89.39
4552.00,89.38
4551.00,89.38
4550.00,89.38
4549.00,89.38
4548.00,89.37
4547.00,89.37
4546.00,89.36
4545.00,89.36
4544.00,89.36
4543.00,89.35
4542.00,89.35
4541.00,89.35
4540.00,89.35
4539.00,89.35
4538.00,89.34
4537.00,89.34
4536.00,89.33
4535.00,89.33
4534.00,89.33
4533.00,89.33
4532.00,89.33
4531.00,89.33
4530.00,89.33
4529.00,89.32
4528.00,89.32
4527.00,89.31
4526.00,89.31
4525.00,89.30
4524.00,89.30
4523.00,89.30
4522.00,89.30
4521.00,89.30
4520.00,89.30
4519.00,89.29
4518.00,89.29
4517.00,89.29
4516.00,89.29
4515.00,89.29
4514.00,89.29
4513.00,89.29
4512.00,89.29
4511.00,89.29
4510.00,89.28
4509.00,89.28
4508.00,89.28
4507.00,89.28
4506.00,89.28
4505.00,89.28
4504.00,89.28
4503.00,89.28
4502.00,89.28
4501.00,89.27
4500.00,89.27
4499.00,89.27
4498.00,89.27
4497.00,89.27
4496.00,89.27
4495.00,89.27
4494.00,89.27
4493.00,89.27
4492.00,89.27
4491.00,89.27
4490.00,89.27
4489.00,89.27
4488.00,89.27
4487.00,89.28
4486.00,89.28
4485.00,89.28
4484.00,89.27
4483.00,89.27
4482.00,89.27
4481.00,89.27
4480.00,89.27
4479.00,89.27
4478.00,89.27
4477.00,89.27
4476.00,89.28
4475.00,89.28
4474.00,89.28
4473.00,89.28
4472.00,89.28
4471.00,89.28
4470.00,89.29
4469.00,89.29
4468.00,89.29
4467.00,89.29
4466.00,89.29
4465.00,89.29
4464.00,89.30
4463.00,89.30
4462.00,89.30
4461.00,89.30
4460.00,89.30
4459.00,89.30
4458.00,89.30
4457.00,89.30
4456.00,89.31
4455.00,89.31
4454.00,89.31
4453.00,89.31
4452.00,89.31
4451.00,89.31
4450.00,89.31
4449.00,89.32
4448.00,89.32
4447.00,89.32
4446.00,89.32
4445.00,89.33
4444.00,89.33
4443.00,89.33
4442.00,89.33
4441.00,89.33
4440.00,89.33
4439.00,89.33
4438.00,89.33
4437.00,89.33
4436.00,89.34
4435.00,89.34
4434.00,89.34
4433.00,89.35
4432.00,89.35
4431.00,89.35
4430.00,89.35
4429.00,89.35
4428.00,89.35
4427.00,89.36
4426.00,89.36
4425.00,89.36
4424.00,89.36
4423.00,89.36
4422.00,89.36
4421.00,89.36
4420.00,89.37
4419.00,89.37
4418.00,89.37
4417.00,89.37
4416.00,89.37
4415.00,89.37
4414.00,89.37
4413.00,89.38
4412.00,89.38
4411.00,89.38
4410.00,89.38
4409.00,89.38
4408.00,89.39
4407.00,89.39
4406.00,89.39
4405.00,89.39
4404.00,89.39
4403.00,89.39
4402.00,89.39
4401.00,89.39
4400.00,89.39
4399.00,89.40
4398.00,89.40
4397.00,89.40
4396.00,89.40
4395.00,89.40
4394.00,89.40
4393.00,89.40
4392.00,89.40
4391.00,89.40
4390.00,89.41
4389.00,89.41
4388.00,89.41
4387.00,89.41
4386.00,89.41
4385.00,89.41
4384.00,89.41
4383.00,89.41
4382.00,89.41
4381.00,89.41
4380.00,89.41
4379.00,89.42
4378.00,89.42
4377.00,89.42
4376.00,89.42
4375.00,89.42
4374.00,89.42
4373.00,89.43
4372.00,89.43
4371.00,89.43
4370.00,89.43
4369.00,89.43
4368.00,89.43
4367.00,89.43
4366.00,89.44
4365.00,89.44
4364.00,89.44
4363.00,89.44
4362.00,89.44
4361.00,89.44
4360.00,89.44
4359.00,89.44
4358.00,89.44
4357.00,89.45
4356.00,89.45
4355.00,89.45
4354.00,89.45
4353.00,89.45
4352.00,89.45
4351.00,89.45
4350.00,89.46
4349.00,89.46
4348.00,89.46
4347.00,89.46
4346.00,89.46
4345.00,89.46
4344.00,89.47
4343.00,89.47
4342.00,89.47
4341.00,89.47
4340.00,89.47
4339.00,89.47
4338.00,89.47
4337.00,89.47
4336.00,89.47
4335.00,89.47
4334.00,89.47
4333.00,89.47
4332.00,89.47
4331.00,89.47
4330.00,89.48
4329.00,89.48
4328.00,89.48
4327.00,89.48
4326.00,89.48
4325.00,89.48
4324.00,89.49
4323.00,89.49
4322.00,89.48
4321.00,89.48
4320.00,89.48
4319.00,89.48
4318.00,89.48
4317.00,89.48
4316.00,89.48
4315.00,89.49
4314.00,89.48
4313.00,89.48
4312.00,89.49
4311.00,89.49
4310.00,89.48
4309.00,89.48
4308.00,89.49
4307.00,89.49
4306.00,89.49
4305.00,89.49
4304.00,89.49
4303.00,89.49
4302.00,89.49
4301.00,89.49
4300.00,89.49
4299.00,89.49
4298.00,89.49
4297.00,89.50
4296.00,89.50
4295.00,89.50
4294.00,89.50
4293.00,89.51
4292.00,89.51
4291.00,89.50
4290.00,89.50
4289.00,89.50
4288.00,89.51
4287.00,89.51
4286.00,89.51
4285.00,89.51
4284.00,89.51
4283.00,89.51
4282.00,89.51
4281.00,89.51
4280.00,89.52
4279.00,89.52
4278.00,89.52
4277.00,89.52
4276.00,89.52
4275.00,89.52
4274.00,89.52
4273.00,89.52
4272.00,89.52
4271.00,89.53
4270.00,89.53
4269.00,89.53
4268.00,89.53
4267.00,89.53
4266.00,89.52
4265.00,89.52
4264.00,89.52
4263.00,89.52
4262.00,89.53
4261.00,89.53
4260.00,89.53
4259.00,89.53
4258.00,89.53
4257.00,89.53
4256.00,89.53
4255.00,89.53
4254.00,89.54
4253.00,89.54
4252.00,89.54
4251.00,89.54
4250.00,89.54
4249.00,89.54
4248.00,89.54
4247.00,89.55
4246.00,89.55
4245.00,89.55
4244.00,89.55
4243.00,89.55
4242.00,89.55
4241.00,89.55
4240.00,89.55
4239.00,89.55
4238.00,89.55
4237.00,89.55
4236.00,89.55
4235.00,89.55
4234.00,89.55
4233.00,89.55
4232.00,89.55
4231.00,89.55
4230.00,89.55
4229.00,89.55
4228.00,89.54
4227.00,89.54
4226.00,89.54
4225.00,89.54
4224.00,89.54
4223.00,89.54
4222.00,89.54
4221.00,89.54
4220.00,89.54
4219.00,89.54
4218.00,89.54
4217.00,89.54
4216.00,89.54
4215.00,89.54
4214.00,89.53
4213.00,89.53
4212.00,89.53
4211.00,89.53
4210.00,89.53
4209.00,89.53
4208.00,89.53
4207.00,89.53
4206.00,89.53
4205.00,89.53
4204.00,89.53
4203.00,89.53
4202.00,89.53
4201.00,89.53
4200.00,89.53
4199.00,89.53
4198.00,89.53
4197.00,89.53
4196.00,89.53
4195.00,89.53
4194.00,89.53
4193.00,89.53
4192.00,89.53
4191.00,89.53
4190.00,89.53
4189.00,89.53
4188.00,89.53
4187.00,89.53
4186.00,89.52
4185.00,89.52
4184.00,89.52
4183.00,89.53
4182.00,89.53
4181.00,89.52
4180.00,89.52
4179.00,89.52
4178.00,89.52
4177.00,89.52
4176.00,89.52
4175.00,89.52
4174.00,89.52
4173.00,89.52
4172.00,89.52
4171.00,89.52
4170.00,89.52
4169.00,89.52
4168.00,89.52
4167.00,89.51
4166.00,89.51
4165.00,89.51
4164.00,89.51
4163.00,89.51
4162.00,89.51
4161.00,89.51
4160.00,89.51
4159.00,89.51
4158.00,89.51
4157.00,89.50
4156.00,89.50
4155.00,89.50
4154.00,89.50
4153.00,89.50
4152.00,89.50
4151.00,89.50
4150.00,89.50
4149.00,89.49
4148.00,89.49
4147.00,89.49
4146.00,89.49
4145.00,89.49
4144.00,89.48
4143.00,89.48
4142.00,89.48
4141.00,89.48
4140.00,89.47
4139.00,89.47
4138.00,89.47
4137.00,89.47
4136.00,89.47
4135.00,89.46
4134.00,89.46
4133.00,89.46
4132.00,89.46
4131.00,89.46
4130.00,89.45
4129.00,89.45
4128.00,89.45
4127.00,89.45
4126.00,89.44
4125.00,89.44
4124.00,89.44
4123.00,89.44
4122.00,89.44
4121.00,89.43
4120.00,89.43
4119.00,89.43
4118.00,89.43
4117.00,89.43
4116.00,89.42
4115.00,89.42
4114.00,89.42
4113.00,89.42
4112.00,89.42
4111.00,89.41
4110.00,89.42
4109.00,89.42
4108.00,89.41
4107.00,89.41
4106.00,89.41
4105.00,89.41
4104.00,89.40
4103.00,89.40
4102.00,89.40
4101.00,89.39
4100.00,89.39
4099.00,89.39
4098.00,89.38
4097.00,89.38
4096.00,89.38
4095.00,89.38
4094.00,89.38
4093.00,89.37
4092.00,89.37
4091.00,89.37
4090.00,89.37
4089.00,89.37
4088.00,89.37
4087.00,89.37
4086.00,89.37
4085.00,89.36
4084.00,89.36
4083.00,89.36
4082.00,89.36
4081.00,89.36
4080.00,89.35
4079.00,89.35
4078.00,89.35
4077.00,89.35
4076.00,89.35
4075.00,89.34
4074.00,89.34
4073.00,89.34
4072.00,89.34
4071.00,89.33
4070.00,89.33
4069.00,89.33
4068.00,89.33
4067.00,89.32
4066.00,89.32
4065.00,89.32
4064.00,89.32
4063.00,89.32
4062.00,89.31
4061.00,89.31
4060.00,89.31
4059.00,89.31
4058.00,89.30
4057.00,89.30
4056.00,89.30
4055.00,89.30
4054.00,89.29
4053.00,89.29
4052.00,89.28
4051.00,89.28
4050.00,89.28
4049.00,89.28
4048.00,89.27
4047.00,89.27
4046.00,89.27
4045.00,89.27
4044.00,89.26
4043.00,89.26
4042.00,89.26
4041.00,89.26
4040.00,89.26
4039.00,89.26
4038.00,89.25
4037.00,89.25
4036.00,89.25
4035.00,89.25
4034.00,89.25
4033.00,89.25
4032.00,89.25
4031.00,89.24
4030.00,89.24
4029.00,89.23
4028.00,89.23
4027.00,89.24
4026.00,89.23
4025.00,89.23
4024.00,89.23
4023.00,89.23
4022.00,89.23
4021.00,89.23
4020.00,89.22
4019.00,89.22
4018.00,89.23
4017.00,89.22
4016.00,89.22
4015.00,89.21
4014.00,89.22
4013.00,89.22
4012.00,89.21
4011.00,89.21
4010.00,89.21
4009.00,89.21
4008.00,89.21
4007.00,89.21
4006.00,89.21
4005.00,89.21
4004.00,89.21
4003.00,89.21
4002.00,89.20
4001.00,89.20
4000.00,89.20
3999.00,89.20
3998.00,89.20
3997.00,89.19
3996.00,89.20
3995.00,89.20
3994.00,89.19
3993.00,89.19
3992.00,89.19
3991.00,89.19
3990.00,89.19
3989.00,89.18
3988.00,89.18
3987.00,89.19
3986.00,89.19
3985.00,89.19
3984.00,89.19
3983.00,89.19
3982.00,89.19
3981.00,89.19
3980.00,89.18
3979.00,89.18
3978.00,89.18
3977.00,89.18
3976.00,89.18
3975.00,89.17
3974.00,89.17
3973.00,89.17
3972.00,89.17
3971.00,89.17
3970.00,89.16
3969.00,89.16
3968.00,89.16
3967.00,89.16
3966.00,89.16
3965.00,89.15
3964.00,89.15
3963.00,89.16
3962.00,89.15
3961.00,89.15
3960.00,89.15
3959.00,89.15
3958.00,89.15
3957.00,89.14
3956.00,89.14
3955.00,89.14
3954.00,89.14
3953.00,89.14
3952.00,89.13
3951.00,89.13
3950.00,89.13
3949.00,89.13
3948.00,89.12
3947.00,89.12
3946.00,89.12
3945.00,89.12
3944.00,89.12
3943.00,89.12
3942.00,89.12
3941.00,89.12
3940.00,89.12
3939.00,89.12
3938.00,89.12
3937.00,89.12
3936.00,89.12
3935.00,89.12
3934.00,89.12
3933.00,89.12
3932.00,89.12
3931.00,89.12
3930.00,89.12
3929.00,89.12
3928.00,89.11
3927.00,89.12
3926.00,89.12
3925.00,89.12
3924.00,89.11
3923.00,89.11
3922.00,89.11
3921.00,89.11
3920.00,89.10
3919.00,89.10
3918.00,89.11
3917.00,89.11
3916.00,89.11
3915.00,89.11
3914.00,89.12
3913.00,89.12
3912.00,89.12
3911.00,89.11
3910.00,89.11
3909.00,89.10
3908.00,89.10
3907.00,89.09
3906.00,89.08
3905.00,89.08
3904.00,89.08
3903.00,89.08
3902.00,89.08
3901.00,89.08
3900.00,89.09
3899.00,89.10
3898.00,89.10
3897.00,89.09
3896.00,89.09
3895.00,89.10
3894.00,89.10
3893.00,89.09
3892.00,89.09
3891.00,89.09
3890.00,89.09
3889.00,89.08
3888.00,89.08
3887.00,89.08
3886.00,89.09
3885.00,89.09
3884.00,89.09
3883.00,89.08
3882.00,89.08
3881.00,89.08
3880.00,89.08
3879.00,89.08
3878.00,89.07
3877.00,89.07
3876.00,89.07
3875.00,89.07
3874.00,89.06
3873.00,89.06
3872.00,89.06
3871.00,89.06
3870.00,89.06
3869.00,89.05
3868.00,89.05
3867.00,89.06
3866.00,89.05
3865.00,89.05
3864.00,89.05
3863.00,89.06
3862.00,89.06
3861.00,89.06
3860.00,89.05
3859.00,89.04
3858.00,89.04
3857.00,89.03
3856.00,89.03
3855.00,89.02
3854.00,89.03
3853.00,89.03
3852.00,89.04
3851.00,89.04
3850.00,89.04
3849.00,89.05
3848.00,89.05
3847.00,89.05
3846.00,89.05
3845.00,89.04
3844.00,89.04
3843.00,89.03
3842.00,89.02
3841.00,89.02
3840.00,89.03
3839.00,89.03
3838.00,89.04
3837.00,89.04
3836.00,89.04
3835.00,89.05
3834.00,89.04
3833.00,89.03
3832.00,89.03
3831.00,89.03
3830.00,89.02
3829.00,89.02
3828.00,89.02
3827.00,89.02
3826.00,89.01
3825.00,89.01
3824.00,89.00
3823.00,89.00
3822.00,89.01
3821.00,89.01
3820.00,89.01
3819.00,89.00
3818.00,89.01
3817.00,89.01
3816.00,89.01
3815.00,89.00
3814.00,89.00
3813.00,89.00
3812.00,89.00
3811.00,88.99
3810.00,88.98
3809.00,88.98
3808.00,88.98
3807.00,88.98
3806.00,88.97
3805.00,88.97
3804.00,88.97
3803.00,88.97
3802.00,88.96
3801.00,88.95
3800.00,88.95
3799.00,88.96
3798.00,88.96
3797.00,88.95
3796.00,88.95
3795.00,88.95
3794.00,88.95
3793.00,88.94
3792.00,88.94
3791.00,88.93
3790.00,88.93
3789.00,88.93
3788.00,88.92
3787.00,88.91
3786.00,88.91
3785.00,88.91
3784.00,88.90
3783.00,88.89
3782.00,88.89
3781.00,88.90
3780.00,88.90
3779.00,88.89
3778.00,88.88
3777.00,88.87
3776.00,88.87
3775.00,88.86
3774.00,88.84
3773.00,88.83
3772.00,88.83
3771.00,88.83
3770.00,88.83
3769.00,88.82
3768.00,88.81
3767.00,88.81
3766.00,88.81
3765.00,88.80
3764.00,88.79
3763.00,88.78
3762.00,88.78
3761.00,88.77
3760.00,88.76
3759.00,88.75
3758.00,88.75
3757.00,88.74
3756.00,88.73
3755.00,88.72
3754.00,88.71
3753.00,88.70
3752.00,88.70
3751.00,88.69
3750.00,88.68
3749.00,88.67
3748.00,88.66
3747.00,88.65
3746.00,88.64
3745.00,88.63
3744.00,88.63
3743.00,88.62
3742.00,88.61
3741.00,88.61
3740.00,88.61
3739.00,88.60
3738.00,88.59
3737.00,88.57
3736.00,88.56
3735.00,88.55
3734.00,88.54
3733.00,88.52
3732.00,88.50
3731.00,88.48
3730.00,88.47
3729.00,88.45
3728.00,88.43
3727.00,88.41
3726.00,88.40
3725.00,88.38
3724.00,88.36
3723.00,88.33
3722.00,88.31
3721.00,88.29
3720.00,88.27
3719.00,88.24
3718.00,88.21
3717.00,88.19
3716.00,88.16
3715.00,88.13
3714.00,88.09
3713.00,88.06
3712.00,88.03
3711.00,87.99
3710.00,87.95
3709.00,87.91
3708.00,87.87
3707.00,87.83
3706.00,87.78
3705.00,87.73
3704.00,87.68
3703.00,87.63
3702.00,87.57
3701.00,87.50
3700.00,87.43
3699.00,87.36
3698.00,87.29
3697.00,87.21
3696.00,87.13
3695.00,87.04
3694.00,86.96
3693.00,86.86
3692.00,86.77
3691.00,86.67
3690.00,86.57
3689.00,86.47
3688.00,86.34
3687.00,86.20
3686.00,86.06
3685.00,85.92
3684.00,85.78
3683.00,85.63
3682.00,85.47
3681.00,85.32
3680.00,85.16
3679.00,85.01
3678.00,84.84
3677.00,84.66
3676.00,84.48
3675.00,84.28
3674.00,84.09
3673.00,83.90
3672.00,83.71
3671.00,83.51
3670.00,83.30
3669.00,83.08
3668.00,82.86
3667.00,82.65
3666.00,82.44
3665.00,82.21
3664.00,81.99
3663.00,81.77
3662.00,81.55
3661.00,81.32
3660.00,81.09
3659.00,80.85
3658.00,80.61
3657.00,80.36
3656.00,80.10
3655.00,79.84
3654.00,79.60
3653.00,79.36
3652.00,79.13
3651.00,78.88
3650.00,78.62
3649.00,78.36
3648.00,78.09
3647.00,77.83
3646.00,77.58
3645.00,77.33
3644.00,77.09
3643.00,76.85
3642.00,76.61
3641.00,76.36
3640.00,76.12
3639.00,75.89
3638.00,75.65
3637.00,75.41
3636.00,75.17
3635.00,74.94
3634.00,74.71
3633.00,74.48
3632.00,74.25
3631.00,74.03
3630.00,73.81
3629.00,73.58
3628.00,73.35
3627.00,73.13
3626.00,72.93
3625.00,72.73
3624.00,72.53
3623.00,72.33
3622.00,72.14
3621.00,71.95
3620.00,71.75
3619.00,71.56
3618.00,71.36
3617.00,71.18
3616.00,71.00
3615.00,70.83
3614.00,70.65
3613.00,70.49
3612.00,70.32
3611.00,70.16
3610.00,70.00
3609.00,69.84
3608.00,69.69
3607.00,69.54
3606.00,69.40
3605.00,69.26
3604.00,69.12
3603.00,68.99
3602.00,68.86
3601.00,68.73
3600.00,68.60
3599.00,68.47
3598.00,68.35
3597.00,68.22
3596.00,68.10
3595.00,67.98
3594.00,67.87
3593.00,67.76
3592.00,67.65
3591.00,67.54
3590.00,67.44
3589.00,67.34
3588.00,67.25
3587.00,67.16
3586.00,67.08
3585.00,67.00
3584.00,66.91
3583.00,66.82
3582.00,66.74
3581.00,66.65
3580.00,66.57
3579.00,66.49
3578.00,66.41
3577.00,66.33
3576.00,66.26
3575.00,66.19
3574.00,66.12
3573.00,66.05
3572.00,65.99
3571.00,65.93
3570.00,65.87
3569.00,65.81
3568.00,65.75
3567.00,65.70
3566.00,65.65
3565.00,65.59
3564.00,65.54
3563.00,65.50
3562.00,65.46
3561.00,65.41
3560.00,65.37
3559.00,65.32
3558.00,65.28
3557.00,65.23
3556.00,65.19
3555.00,65.15
3554.00,65.12
3553.00,65.09
3552.00,65.05
3551.00,65.02
3550.00,64.98
3549.00,64.95
3548.00,64.93
3547.00,64.91
3546.00,64.89
3545.00,64.87
3544.00,64.85
3543.00,64.82
3542.00,64.79
3541.00,64.75
3540.00,64.73
3539.00,64.71
3538.00,64.69
3537.00,64.67
3536.00,64.65
3535.00,64.63
3534.00,64.61
3533.00,64.59
3532.00,64.56
3531.00,64.54
3530.00,64.53
3529.00,64.52
3528.00,64.51
3527.00,64.49
3526.00,64.49
3525.00,64.48
3524.00,64.48
3523.00,64.47
3522.00,64.46
3521.00,64.44
3520.00,64.43
3519.00,64.42
3518.00,64.41
3517.00,64.40
3516.00,64.40
3515.00,64.40
3514.00,64.39
3513.00,64.38
3512.00,64.38
3511.00,64.37
3510.00,64.36
3509.00,64.36
3508.00,64.35
3507.00,64.35
3506.00,64.36
3505.00,64.36
3504.00,64.37
3503.00,64.37
3502.00,64.38
3501.00,64.38
3500.00,64.37
3499.00,64.37
3498.00,64.37
3497.00,64.38
3496.00,64.38
3495.00,64.37
3494.00,64.38
3493.00,64.38
3492.00,64.38
3491.00,64.38
3490.00,64.38
3489.00,64.39
3488.00,64.40
3487.00,64.40
3486.00,64.40
3485.00,64.41
3484.00,64.41
3483.00,64.42
3482.00,64.43
3481.00,64.44
3480.00,64.45
3479.00,64.46
3478.00,64.47
3477.00,64.47
3476.00,64.47
3475.00,64.47
3474.00,64.48
3473.00,64.49
3472.00,64.50
3471.00,64.53
3470.00,64.55
3469.00,64.57
3468.00,64.58
3467.00,64.58
3466.00,64.58
3465.00,64.58
3464.00,64.58
3463.00,64.58
3462.00,64.59
3461.00,64.60
3460.00,64.61
3459.00,64.61
3458.00,64.62
3457.00,64.63
3456.00,64.64
3455.00,64.65
3454.00,64.65
3453.00,64.66
3452.00,64.67
3451.00,64.69
3450.00,64.69
3449.00,64.71
3448.00,64.72
3447.00,64.74
3446.00,64.75
3445.00,64.76
3444.00,64.77
3443.00,64.78
3442.00,64.79
3441.00,64.81
3440.00,64.82
3439.00,64.85
3438.00,64.87
3437.00,64.89
3436.00,64.91
3435.00,64.92
3434.00,64.93
3433.00,64.94
3432.00,64.95
3431.00,64.96
3430.00,64.97
3429.00,64.98
3428.00,64.99
3427.00,64.99
3426.00,65.00
3425.00,65.01
3424.00,65.02
3423.00,65.03
3422.00,65.04
3421.00,65.06
3420.00,65.07
3419.00,65.09
3418.00,65.10
3417.00,65.11
3416.00,65.13
3415.00,65.15
3414.00,65.17
3413.00,65.18
3412.00,65.20
3411.00,65.22
3410.00,65.23
3409.00,65.24
3408.00,65.25
3407.00,65.26
3406.00,65.28
3405.00,65.29
3404.00,65.31
3403.00,65.34
3402.00,65.38
3401.00,65.40
3400.00,65.41
3399.00,65.41
3398.00,65.42
3397.00,65.42
3396.00,65.43
3395.00,65.44
3394.00,65.46
3393.00,65.49
3392.00,65.51
3391.00,65.52
3390.00,65.52
3389.00,65.52
3388.00,65.53
3387.00,65.54
3386.00,65.54
3385.00,65.55
3384.00,65.57
3383.00,65.58
3382.00,65.60
3381.00,65.61
3380.00,65.63
3379.00,65.65
3378.00,65.66
3377.00,65.67
3376.00,65.68
3375.00,65.69
3374.00,65.71
3373.00,65.72
3372.00,65.74
3371.00,65.77
3370.00,65.80
3369.00,65.82
3368.00,65.83
3367.00,65.84
3366.00,65.84
3365.00,65.84
3364.00,65.84
3363.00,65.85
3362.00,65.86
3361.00,65.87
3360.00,65.88
3359.00,65.89
3358.00,65.90
3357.00,65.91
3356.00,65.92
3355.00,65.93
3354.00,65.95
3353.00,65.97
3352.00,65.99
3351.00,66.01
3350.00,66.02
3349.00,66.02
3348.00,66.03
3347.00,66.03
3346.00,66.04
3345.00,66.05
3344.00,66.06
3343.00,66.08
3342.00,66.09
3341.00,66.11
3340.00,66.12
3339.00,66.13
3338.00,66.14
3337.00,66.15
3336.00,66.14
3335.00,66.15
3334.00,66.15
3333.00,66.16
3332.00,66.16
3331.00,66.17
3330.00,66.18
3329.00,66.20
3328.00,66.21
3327.00,66.22
3326.00,66.24
3325.00,66.25
3324.00,66.26
3323.00,66.26
3322.00,66.26
3321.00,66.27
3320.00,66.27
3319.00,66.28
3318.00,66.28
3317.00,66.29
3316.00,66.30
3315.00,66.31
3314.00,66.32
3313.00,66.32
3312.00,66.33
3311.00,66.35
3310.00,66.37
3309.00,66.39
3308.00,66.41
3307.00,66.43
3306.00,66.44
3305.00,66.44
3304.00,66.43
3303.00,66.42
3302.00,66.41
3301.00,66.41
3300.00,66.40
3299.00,66.40
3298.00,66.41
3297.00,66.42
3296.00,66.43
3295.00,66.44
3294.00,66.45
3293.00,66.45
3292.00,66.45
3291.00,66.45
3290.00,66.44
3289.00,66.43
3288.00,66.43
3287.00,66.42
3286.00,66.42
3285.00,66.42
3284.00,66.42
3283.00,66.42
3282.00,66.42
3281.00,66.42
3280.00,66.42
3279.00,66.42
3278.00,66.43
3277.00,66.43
3276.00,66.43
3275.00,66.44
3274.00,66.45
3273.00,66.45
3272.00,66.45
3271.00,66.45
3270.00,66.45
3269.00,66.44
3268.00,66.42
3267.00,66.41
3266.00,66.40
3265.00,66.40
3264.00,66.39
3263.00,66.38
3262.00,66.38
3261.00,66.38
3260.00,66.37
3259.00,66.37
3258.00,66.37
3257.00,66.37
3256.00,66.37
3255.00,66.36
3254.00,66.35
3253.00,66.34
3252.00,66.34
3251.00,66.33
3250.00,66.33
3249.00,66.32
3248.00,66.33
3247.00,66.33
3246.00,66.32
3245.00,66.30
3244.00,66.29
3243.00,66.28
3242.00,66.27
3241.00,66.26
3240.00,66.25
3239.00,66.24
3238.00,66.24
3237.00,66.24
3236.00,66.24
3235.00,66.24
3234.00,66.24
3233.00,66.24
3232.00,66.22
3231.00,66.20
3230.00,66.19
3229.00,66.18
3228.00,66.17
3227.00,66.15
3226.00,66.14
3225.00,66.14
3224.00,66.13
3223.00,66.12
3222.00,66.11
3221.00,66.10
3220.00,66.10
3219.00,66.09
3218.00,66.08
3217.00,66.06
3216.00,66.06
3215.00,66.05
3214.00,66.04
3213.00,66.02
3212.00,66.01
3211.00,66.01
3210.00,66.00
3209.00,65.98
3208.00,65.97
3207.00,65.96
3206.00,65.96
3205.00,65.94
3204.00,65.93
3203.00,65.91
3202.00,65.91
3201.00,65.89
3200.00,65.88
3199.00,65.86
3198.00,65.85
3197.00,65.84
3196.00,65.83
3195.00,65.81
3194.00,65.80
3193.00,65.79
3192.00,65.78
3191.00,65.76
3190.00,65.75
3189.00,65.74
3188.00,65.72
3187.00,65.71
3186.00,65.69
3185.00,65.68
3184.00,65.67
3183.00,65.65
3182.00,65.64
3181.00,65.62
3180.00,65.61
3179.00,65.60
3178.00,65.58
3177.00,65.56
3176.00,65.55
3175.00,65.54
3174.00,65.52
3173.00,65.51
3172.00,65.49
3171.00,65.47
3170.00,65.46
3169.00,65.44
3168.00,65.42
3167.00,65.41
3166.00,65.40
3165.00,65.38
3164.00,65.36
3163.00,65.34
3162.00,65.33
3161.00,65.32
3160.00,65.30
3159.00,65.28
3158.00,65.26
3157.00,65.25
3156.00,65.24
3155.00,65.22
3154.00,65.21
3153.00,65.21
3152.00,65.19
3151.00,65.17
3150.00,65.15
3149.00,65.12
3148.00,65.10
3147.00,65.08
3146.00,65.06
3145.00,65.04
3144.00,65.02
3143.00,65.01
3142.00,65.00
3141.00,64.98
3140.00,64.97
3139.00,64.95
3138.00,64.94
3137.00,64.91
3136.00,64.88
3135.00,64.86
3134.00,64.85
3133.00,64.83
3132.00,64.81
3131.00,64.79
3130.00,64.78
3129.00,64.76
3128.00,64.74
3127.00,64.71
3126.00,64.69
3125.00,64.68
3124.00,64.67
3123.00,64.65
3122.00,64.64
3121.00,64.64
3120.00,64.63
3119.00,64.62
3118.00,64.60
3117.00,64.58
3116.00,64.56
3115.00,64.54
3114.00,64.50
3113.00,64.47
3112.00,64.45
3111.00,64.43
3110.00,64.41
3109.00,64.39
3108.00,64.37
3107.00,64.35
3106.00,64.33
3105.00,64.30
3104.00,64.27
3103.00,64.26
3102.00,64.25
3101.00,64.23
3100.00,64.20
3099.00,64.18
3098.00,64.16
3097.00,64.14
3096.00,64.12
3095.00,64.09
3094.00,64.08
3093.00,64.06
3092.00,64.05
3091.00,64.03
3090.00,64.01
3089.00,63.99
3088.00,63.98
3087.00,63.95
3086.00,63.93
3085.00,63.92
3084.00,63.91
3083.00,63.89
3082.00,63.87
3081.00,63.85
3080.00,63.84
3079.00,63.82
3078.00,63.80
3077.00,63.77
3076.00,63.74
3075.00,63.71
3074.00,63.68
3073.00,63.65
3072.00,63.63
3071.00,63.61
3070.00,63.60
3069.00,63.58
3068.00,63.56
3067.00,63.55
3066.00,63.53
3065.00,63.51
3064.00,63.48
3063.00,63.45
3062.00,63.44
3061.00,63.42
3060.00,63.39
3059.00,63.37
3058.00,63.35
3057.00,63.34
3056.00,63.33
3055.00,63.30
3054.00,63.29
3053.00,63.27
3052.00,63.26
3051.00,63.24
3050.00,63.22
3049.00,63.19
3048.00,63.18
3047.00,63.16
3046.00,63.14
3045.00,63.13
3044.00,63.12
3043.00,63.11
3042.00,63.09
3041.00,63.06
3040.00,63.03
3039.00,63.01
3038.00,62.99
3037.00,62.97
3036.00,62.95
3035.00,62.94
3034.00,62.92
3033.00,62.90
3032.00,62.87
3031.00,62.85
3030.00,62.83
3029.00,62.81
3028.00,62.79
3027.00,62.77
3026.00,62.75
3025.00,62.74
3024.00,62.72
3023.00,62.70
3022.00,62.68
3021.00,62.67
3020.00,62.65
3019.00,62.63
3018.00,62.62
3017.00,62.61
3016.00,62.60
3015.00,62.59
3014.00,62.57
3013.00,62.55
3012.00,62.54
3011.00,62.52
3010.00,62.49
3009.00,62.46
3008.00,62.43
3007.00,62.41
3006.00,62.39
3005.00,62.37
3004.00,62.35
3003.00,62.34
3002.00,62.33
3001.00,62.31
3000.00,62.29
2999.00,62.28
2998.00,62.27
2997.00,62.25
2996.00,62.23
2995.00,62.21
2994.00,62.20
2993.00,62.19
2992.00,62.17
2991.00,62.14
2990.00,62.12
2989.00,62.11
2988.00,62.08
2987.00,62.06
2986.00,62.04
2985.00,62.03
2984.00,62.01
2983.00,61.99
2982.00,61.97
2981.00,61.96
2980.00,61.94
2979.00,61.93
2978.00,61.90
2977.00,61.88
2976.00,61.86
2975.00,61.85
2974.00,61.82
2973.00,61.80
2972.00,61.77
2971.00,61.75
2970.00,61.73
2969.00,61.70
2968.00,61.68
2967.00,61.66
2966.00,61.65
2965.00,61.62
2964.00,61.60
2963.00,61.58
2962.00,61.57
2961.00,61.55
2960.00,61.52
2959.00,61.50
2958.00,61.49
2957.00,61.48
2956.00,61.47
2955.00,61.45
2954.00,61.45
2953.00,61.44
2952.00,61.43
2951.00,61.41
2950.00,61.40
2949.00,61.39
2948.00,61.39
2947.00,61.37
2946.00,61.36
2945.00,61.34
2944.00,61.33
2943.00,61.31
2942.00,61.28
2941.00,61.26
2940.00,61.24
2939.00,61.22
2938.00,61.19
2937.00,61.17
2936.00,61.15
2935.00,61.13
2934.00,61.11
2933.00,61.08
2932.00,61.06
2931.00,61.04
2930.00,61.02
2929.00,60.99
2928.00,60.95
2927.00,60.92
2926.00,60.89
2925.00,60.85
2924.00,60.81
2923.00,60.77
2922.00,60.74
2921.00,60.71
2920.00,60.68
2919.00,60.66
2918.00,60.65
2917.00,60.66
2916.00,60.68
2915.00,60.70
2914.00,60.73
2913.00,60.76
2912.00,60.78
2911.00,60.80
2910.00,60.81
2909.00,60.82
2908.00,60.83
2907.00,60.84
2906.00,60.85
2905.00,60.85
2904.00,60.85
2903.00,60.86
2902.00,60.86
2901.00,60.85
2900.00,60.85
2899.00,60.85
2898.00,60.85
2897.00,60.85
2896.00,60.84
2895.00,60.84
2894.00,60.84
2893.00,60.84
2892.00,60.83
2891.00,60.82
2890.00,60.83
2889.00,60.83
2888.00,60.82
2887.00,60.81
2886.00,60.82
2885.00,60.82
2884.00,60.81
2883.00,60.81
2882.00,60.81
2881.00,60.81
2880.00,60.81
2879.00,60.80
2878.00,60.80
2877.00,60.80
2876.00,60.80
2875.00,60.81
2874.00,60.80
2873.00,60.80
2872.00,60.80
2871.00,60.79
2870.00,60.78
2869.00,60.77
2868.00,60.77
2867.00,60.77
2866.00,60.76
2865.00,60.75
2864.00,60.75
2863.00,60.75
2862.00,60.74
2861.00,60.73
2860.00,60.72
2859.00,60.72
2858.00,60.71
2857.00,60.69
2856.00,60.67
2855.00,60.65
2854.00,60.64
2853.00,60.61
2852.00,60.59
2851.00,60.57
2850.00,60.56
2849.00,60.57
2848.00,60.59
2847.00,60.62
2846.00,60.65
2845.00,60.69
2844.00,60.73
2843.00,60.75
2842.00,60.78
2841.00,60.81
2840.00,60.84
2839.00,60.85
2838.00,60.86
2837.00,60.87
2836.00,60.88
2835.00,60.89
2834.00,60.89
2833.00,60.90
2832.00,60.91
2831.00,60.92
2830.00,60.92
2829.00,60.93
2828.00,60.93
2827.00,60.95
2826.00,60.96
2825.00,60.96
2824.00,60.96
2823.00,60.98
2822.00,60.99
2821.00,60.99
2820.00,60.99
2819.00,61.00
2818.00,61.02
2817.00,61.03
2816.00,61.03
2815.00,61.04
2814.00,61.05
2813.00,61.06
2812.00,61.07
2811.00,61.07
2810.00,61.08
2809.00,61.10
2808.00,61.10
2807.00,61.11
2806.00,61.12
2805.00,61.13
2804.00,61.14
2803.00,61.15
2802.00,61.16
2801.00,61.17
2800.00,61.19
2799.00,61.20
2798.00,61.21
2797.00,61.22
2796.00,61.23
2795.00,61.25
2794.00,61.26
2793.00,61.26
2792.00,61.28
2791.00,61.30
2790.00,61.31
2789.00,61.32
2788.00,61.32
2787.00,61.34
2786.00,61.35
2785.00,61.36
2784.00,61.37
2783.00,61.38
2782.00,61.40
2781.00,61.41
2780.00,61.42
2779.00,61.43
2778.00,61.45
2777.00,61.47
2776.00,61.48
2775.00,61.49
2774.00,61.51
2773.00,61.52
2772.00,61.54
2771.00,61.54
2770.00,61.56
2769.00,61.57
2768.00,61.59
2767.00,61.60
2766.00,61.61
2765.00,61.63
2764.00,61.65
2763.00,61.66
2762.00,61.67
2761.00,61.68
2760.00,61.70
2759.00,61.72
2758.00,61.73
2757.00,61.74
2756.00,61.76
2755.00,61.78
2754.00,61.79
2753.00,61.80
2752.00,61.82
2751.00,61.84
2750.00,61.86
2749.00,61.87
2748.00,61.88
2747.00,61.90
2746.00,61.92
2745.00,61.94
2744.00,61.95
2743.00,61.96
2742.00,61.98
2741.00,62.00
2740.00,62.01
2739.00,62.03
2738.00,62.05
2737.00,62.07
2736.00,62.08
2735.00,62.09
2734.00,62.11
2733.00,62.13
2732.00,62.15
2731.00,62.16
2730.00,62.18
2729.00,62.20
2728.00,62.22
2727.00,62.24
2726.00,62.25
2725.00,62.26
2724.00,62.29
2723.00,62.31
2722.00,62.32
2721.00,62.33
2720.00,62.35
2719.00,62.37
2718.00,62.39
2717.00,62.40
2716.00,62.41
2715.00,62.44
2714.00,62.46
2713.00,62.47
2712.00,62.48
2711.00,62.50
2710.00,62.53
2709.00,62.55
2708.00,62.56
2707.00,62.58
2706.00,62.60
2705.00,62.62
2704.00,62.63
2703.00,62.65
2702.00,62.67
2701.00,62.69
2700.00,62.71
2699.00,62.73
2698.00,62.75
2697.00,62.77
2696.00,62.79
2695.00,62.80
2694.00,62.82
2693.00,62.84
2692.00,62.86
2691.00,62.88
2690.00,62.90
2689.00,62.91
2688.00,62.94
2687.00,62.96
2686.00,62.98
2685.00,62.99
2684.00,63.01
2683.00,63.04
2682.00,63.06
2681.00,63.07
2680.00,63.09
2679.00,63.12
2678.00,63.14
2677.00,63.15
2676.00,63.17
2675.00,63.19
2674.00,63.22
2673.00,63.23
2672.00,63.25
2671.00,63.27
2670.00,63.29
2669.00,63.32
2668.00,63.33
2667.00,63.35
2666.00,63.37
2665.00,63.39
2664.00,63.41
2663.00,63.43
2662.00,63.45
2661.00,63.48
2660.00,63.49
2659.00,63.51
2658.00,63.53
2657.00,63.55
2656.00,63.58
2655.00,63.59
2654.00,63.61
2653.00,63.63
2652.00,63.66
2651.00,63.68
2650.00,63.70
2649.00,63.72
2648.00,63.75
2647.00,63.77
2646.00,63.78
2645.00,63.80
2644.00,63.82
2643.00,63.85
2642.00,63.87
2641.00,63.88
2640.00,63.90
2639.00,63.93
2638.00,63.96
2637.00,63.97
2636.00,63.99
2635.00,64.01
2634.00,64.04
2633.00,64.06
2632.00,64.07
2631.00,64.09
2630.00,64.12
2629.00,64.14
2628.00,64.16
2627.00,64.18
2626.00,64.20
2625.00,64.23
2624.00,64.25
2623.00,64.27
2622.00,64.29
2621.00,64.32
2620.00,64.34
2619.00,64.35
2618.00,64.37
2617.00,64.40
2616.00,64.42
2615.00,64.44
2614.00,64.46
2613.00,64.48
2612.00,64.51
2611.00,64.53
2610.00,64.54
2609.00,64.56
2608.00,64.59
2607.00,64.61
2606.00,64.63
2605.00,64.64
2604.00,64.66
2603.00,64.69
2602.00,64.71
2601.00,64.72
2600.00,64.74
2599.00,64.77
2598.00,64.79
2597.00,64.81
2596.00,64.82
2595.00,64.84
2594.00,64.87
2593.00,64.89
2592.00,64.90
2591.00,64.92
2590.00,64.94
2589.00,64.96
2588.00,64.98
2587.00,64.99
2586.00,65.01
2585.00,65.04
2584.00,65.05
2583.00,65.06
2582.00,65.08
2581.00,65.10
2580.00,65.12
2579.00,65.13
2578.00,65.15
2577.00,65.17
2576.00,65.19
2575.00,65.20
2574.00,65.21
2573.00,65.23
2572.00,65.25
2571.00,65.27
2570.00,65.28
2569.00,65.29
2568.00,65.31
2567.00,65.32
2566.00,65.33
2565.00,65.34
2564.00,65.35
2563.00,65.37
2562.00,65.39
2561.00,65.39
2560.00,65.40
2559.00,65.41
2558.00,65.43
2557.00,65.44
2556.00,65.44
2555.00,65.45
2554.00,65.47
2553.00,65.48
2552.00,65.48
2551.00,65.48
2550.00,65.50
2549.00,65.51
2548.00,65.51
2547.00,65.51
2546.00,65.52
2545.00,65.53
2544.00,65.54
2543.00,65.53
2542.00,65.54
2541.00,65.55
2540.00,65.56
2539.00,65.56
2538.00,65.56
2537.00,65.56
2536.00,65.57
2535.00,65.57
2534.00,65.57
2533.00,65.57
2532.00,65.57
2531.00,65.58
2530.00,65.57
2529.00,65.56
2528.00,65.57
2527.00,65.57
2526.00,65.57
2525.00,65.55
2524.00,65.55
2523.00,65.56
2522.00,65.55
2521.00,65.54
2520.00,65.53
2519.00,65.53
2518.00,65.53
2517.00,65.52
2516.00,65.50
2515.00,65.49
2514.00,65.49
2513.00,65.48
2512.00,65.46
2511.00,65.45
2510.00,65.44
2509.00,65.43
2508.00,65.41
2507.00,65.39
2506.00,65.38
2505.00,65.37
2504.00,65.35
2503.00,65.33
2502.00,65.31
2501.00,65.30
2500.00,65.28
2499.00,65.26
2498.00,65.23
2497.00,65.22
2496.00,65.20
2495.00,65.18
2494.00,65.15
2493.00,65.12
2492.00,65.11
2491.00,65.08
2490.00,65.05
2489.00,65.03
2488.00,65.00
2487.00,64.98
2486.00,64.95
2485.00,64.91
2484.00,64.88
2483.00,64.86
2482.00,64.83
2481.00,64.79
2480.00,64.75
2479.00,64.73
2478.00,64.70
2477.00,64.66
2476.00,64.61
2475.00,64.58
2474.00,64.55
2473.00,64.51
2472.00,64.46
2471.00,64.42
2470.00,64.39
2469.00,64.35
2468.00,64.30
2467.00,64.26
2466.00,64.22
2465.00,64.18
2464.00,64.13
2463.00,64.08
2462.00,64.04
2461.00,64.00
2460.00,63.95
2459.00,63.89
2458.00,63.84
2457.00,63.79
2456.00,63.75
2455.00,63.69
2454.00,63.63
2453.00,63.58
2452.00,63.54
2451.00,63.48
2450.00,63.42
2449.00,63.36
2448.00,63.31
2447.00,63.26
2446.00,63.20
2445.00,63.13
2444.00,63.08
2443.00,63.03
2442.00,62.97
2441.00,62.90
2440.00,62.84
2439.00,62.78
2438.00,62.72
2437.00,62.65
2436.00,62.58
2435.00,62.52
2434.00,62.47
2433.00,62.39
2432.00,62.32
2431.00,62.25
2430.00,62.19
2429.00,62.12
2428.00,62.05
2427.00,61.98
2426.00,61.92
2425.00,61.85
2424.00,61.77
2423.00,61.70
2422.00,61.63
2421.00,61.56
2420.00,61.48
2419.00,61.40
2418.00,61.33
2417.00,61.26
2416.00,61.18
2415.00,61.10
2414.00,61.02
2413.00,60.95
2412.00,60.88
2411.00,60.79
2410.00,60.71
2409.00,60.63
2408.00,60.56
2407.00,60.48
2406.00,60.39
2405.00,60.31
2404.00,60.23
2403.00,60.15
2402.00,60.07
2401.00,59.98
2400.00,59.89
2399.00,59.82
2398.00,59.73
2397.00,59.64
2396.00,59.55
2395.00,59.47
2394.00,59.39
2393.00,59.29
2392.00,59.20
2391.00,59.11
2390.00,59.03
2389.00,58.94
2388.00,58.84
2387.00,58.76
2386.00,58.67
2385.00,58.58
2384.00,58.49
2383.00,58.40
2382.00,58.32
2381.00,58.24
2380.00,58.16
2379.00,58.08
2378.00,58.01
2377.00,57.94
2376.00,57.87
2375.00,57.79
2374.00,57.71
2373.00,57.64
2372.00,57.56
2371.00,57.47
2370.00,57.37
2369.00,57.28
2368.00,57.19
2367.00,57.09
2366.00,56.99
2365.00,56.89
2364.00,56.80
2363.00,56.70
2362.00,56.60
2361.00,56.49
2360.00,56.39
2359.00,56.30
2358.00,56.19
2357.00,56.08
2356.00,55.97
2355.00,55.86
2354.00,55.73
2353.00,55.60
2352.00,55.47
2351.00,55.37
2350.00,55.28
2349.00,55.17
2348.00,55.06
2347.00,54.94
2346.00,54.82
2345.00,54.69
2344.00,54.57
2343.00,54.46
2342.00,54.34
2341.00,54.21
2340.00,54.07
2339.00,53.94
2338.00,53.81
2337.00,53.68
2336.00,53.53
2335.00,53.40
2334.00,53.27
2333.00,53.14
2332.00,53.00
2331.00,52.85
2330.00,52.72
2329.00,52.59
2328.00,52.45
2327.00,52.31
2326.00,52.17
2325.00,52.03
2324.00,51.89
2323.00,51.74
2322.00,51.59
2321.00,51.44
2320.00,51.29
2319.00,51.14
2318.00,50.98
2317.00,50.83
2316.00,50.67
2315.00,50.51
2314.00,50.35
2313.00,50.18
2312.00,50.02
2311.00,49.86
2310.00,49.69
2309.00,49.52
2308.00,49.36
2307.00,49.19
2306.00,49.03
2305.00,48.85
2304.00,48.68
2303.00,48.51
2302.00,48.34
2301.00,48.16
2300.00,47.98
2299.00,47.81
2298.00,47.64
2297.00,47.46
2296.00,47.27
2295.00,47.09
2294.00,46.91
2293.00,46.72
2292.00,46.53
2291.00,46.34
2290.00,46.16
2289.00,45.97
2288.00,45.77
2287.00,45.57
2286.00,45.38
2285.00,45.18
2284.00,44.98
2283.00,44.78
2282.00,44.58
2281.00,44.38
2280.00,44.18
2279.00,43.97
2278.00,43.76
2277.00,43.56
2276.00,43.35
2275.00,43.14
2274.00,42.92
2273.00,42.71
2272.00,42.50
2271.00,42.28
2270.00,42.06
2269.00,41.84
2268.00,41.62
2267.00,41.40
2266.00,41.18
2265.00,40.95
2264.00,40.73
2263.00,40.50
2262.00,40.27
2261.00,40.04
2260.00,39.81
2259.00,39.58
2258.00,39.35
2257.00,39.12
2256.00,38.88
2255.00,38.65
2254.00,38.42
2253.00,38.18
2252.00,37.94
2251.00,37.70
2250.00,37.47
2249.00,37.23
2248.00,36.98
2247.00,36.74
2246.00,36.51
2245.00,36.26
2244.00,36.02
2243.00,35.77
2242.00,35.53
2241.00,35.29
2240.00,35.04
2239.00,34.80
2238.00,34.55
2237.00,34.31
2236.00,34.06
2235.00,33.81
2234.00,33.57
2233.00,33.33
2232.00,33.08
2231.00,32.83
2230.00,32.58
2229.00,32.34
2228.00,32.09
2227.00,31.84
2226.00,31.60
2225.00,31.35
2224.00,31.10
2223.00,30.86
2222.00,30.61
2221.00,30.37
2220.00,30.12
2219.00,29.88
2218.00,29.63
2217.00,29.39
2216.00,29.14
2215.00,28.90
2214.00,28.66
2213.00,28.41
2212.00,28.17
2211.00,27.93
2210.00,27.69
2209.00,27.45
2208.00,27.21
2207.00,26.97
2206.00,26.73
2205.00,26.49
2204.00,26.25
2203.00,26.02
2202.00,25.78
2201.00,25.55
2200.00,25.31
2199.00,25.08
2198.00,24.85
2197.00,24.62
2196.00,24.38
2195.00,24.16
2194.00,23.93
2193.00,23.70
2192.00,23.48
2191.00,23.25
2190.00,23.03
2189.00,22.81
2188.00,22.59
2187.00,22.37
2186.00,22.15
2185.00,21.94
2184.00,21.72
2183.00,21.51
2182.00,21.30
2181.00,21.09
2180.00,20.88
2179.00,20.67
2178.00,20.46
2177.00,20.26
2176.00,20.06
2175.00,19.85
2174.00,19.65
2173.00,19.46
2172.00,19.26
2171.00,19.07
2170.00,18.87
2169.00,18.68
2168.00,18.49
2167.00,18.30
2166.00,18.12
2165.00,17.94
2164.00,17.75
2163.00,17.57
2162.00,17.39
2161.00,17.22
2160.00,17.04
2159.00,16.87
2158.00,16.70
2157.00,16.53
2156.00,16.36
2155.00,16.19
2154.00,16.03
2153.00,15.87
2152.00,15.71
2151.00,15.55
2150.00,15.39
2149.00,15.24
2148.00,15.08
2147.00,14.93
2146.00,14.78
2145.00,14.64
2144.00,14.49
2143.00,14.35
2142.00,14.21
2141.00,14.07
2140.00,13.93
2139.00,13.79
2138.00,13.66
2137.00,13.52
2136.00,13.39
2135.00,13.26
2134.00,13.14
2133.00,13.01
2132.00,12.89
2131.00,12.77
2130.00,12.65
2129.00,12.53
2128.00,12.41
2127.00,12.30
2126.00,12.19
2125.00,12.08
2124.00,11.97
2123.00,11.87
2122.00,11.76
2121.00,11.66
2120.00,11.56
2119.00,11.46
2118.00,11.36
2117.00,11.26
2116.00,11.17
2115.00,11.08
2114.00,10.99
2113.00,10.90
2112.00,10.81
2111.00,10.73
2110.00,10.65
2109.00,10.56
2108.00,10.48
2107.00,10.41
2106.00,10.33
2105.00,10.26
2104.00,10.18
2103.00,10.11
2102.00,10.04
2101.00,9.97
2100.00,9.90
2099.00,9.84
2098.00,9.78
2097.00,9.71
2096.00,9.65
2095.00,9.60
2094.00,9.54
2093.00,9.48
2092.00,9.43
2091.00,9.37
2090.00,9.32
2089.00,9.27
2088.00,9.22
2087.00,9.18
2086.00,9.13
2085.00,9.08
2084.00,9.03
2083.00,8.99
2082.00,8.95
2081.00,8.91
2080.00,8.86
2079.00,8.83
2078.00,8.79
2077.00,8.75
2076.00,8.71
2075.00,8.67
2074.00,8.64
2073.00,8.60
2072.00,8.57
2071.00,8.53
2070.00,8.50
2069.00,8.47
2068.00,8.44
2067.00,8.40
2066.00,8.37
2065.00,8.34
2064.00,8.30
2063.00,8.27
2062.00,8.24
2061.00,8.20
2060.00,8.17
2059.00,8.14
2058.00,8.11
2057.00,8.07
2056.00,8.04
2055.00,8.00
2054.00,7.97
2053.00,7.93
2052.00,7.89
2051.00,7.85
2050.00,7.81
2049.00,7.78
2048.00,7.73
2047.00,7.69
2046.00,7.65
2045.00,7.61
2044.00,7.56
2043.00,7.52
2042.00,7.47
2041.00,7.42
2040.00,7.37
2039.00,7.32
2038.00,7.27
2037.00,7.22
2036.00,7.16
2035.00,7.10
2034.00,7.05
2033.00,6.99
2032.00,6.93
2031.00,6.87
2030.00,6.80
2029.00,6.74
2028.00,6.67
2027.00,6.61
2026.00,6.54
2025.00,6.47
2024.00,6.40
2023.00,6.33
2022.00,6.26
2021.00,6.18
2020.00,6.10
2019.00,6.02
2018.00,5.94
2017.00,5.87
2016.00,5.79
2015.00,5.71
2014.00,5.63
2013.00,5.55
2012.00,5.46
2011.00,5.38
2010.00,5.30
2009.00,5.21
2008.00,5.13
2007.00,5.05
2006.00,4.96
2005.00,4.88
2004.00,4.79
2003.00,4.71
2002.00,4.62
2001.00,4.54
2000.00,4.45
1999.00,4.37
1998.00,4.29
1997.00,4.20
1996.00,4.13
1995.00,4.04
1994.00,3.96
1993.00,3.88
1992.00,3.80
1991.00,3.72
1990.00,3.64
1989.00,3.56
1988.00,3.48
1987.00,3.41
1986.00,3.33
1985.00,3.26
1984.00,3.18
1983.00,3.11
1982.00,3.04
1981.00,2.97
1980.00,2.90
1979.00,2.83
1978.00,2.77
1977.00,2.70
1976.00,2.64
1975.00,2.58
1974.00,2.52
1973.00,2.46
1972.00,2.40
1971.00,2.34
1970.00,2.28
1969.00,2.23
1968.00,2.17
1967.00,2.12
1966.00,2.07
1965.00,2.02
1964.00,1.97
1963.00,1.92
1962.00,1.87
1961.00,1.82
1960.00,1.78
1959.00,1.73
1958.00,1.69
1957.00,1.65
1956.00,1.61
1955.00,1.57
1954.00,1.53
1953.00,1.49
1952.00,1.46
1951.00,1.42
1950.00,1.38
1949.00,1.35
1948.00,1.32
1947.00,1.28
1946.00,1.25
1945.00,1.22
1944.00,1.19
1943.00,1.16
1942.00,1.13
1941.00,1.10
1940.00,1.08
1939.00,1.05
1938.00,1.02
1937.00,1.00
1936.00,0.97
1935.00,0.95
1934.00,0.93
1933.00,0.90
1932.00,0.88
1931.00,0.86
1930.00,0.84
1929.00,0.82
1928.00,0.80
1927.00,0.78
1926.00,0.76
1925.00,0.74
1924.00,0.73
1923.00,0.71
1922.00,0.70
1921.00,0.68
1920.00,0.66
1919.00,0.64
1918.00,0.63
1917.00,0.61
1916.00,0.60
1915.00,0.59
1914.00,0.57
1913.00,0.56
1912.00,0.54
1911.00,0.53
1910.00,0.52
1909.00,0.51
1908.00,0.49
1907.00,0.48
1906.00,0.47
1905.00,0.46
1904.00,0.45
1903.00,0.44
1902.00,0.43
1901.00,0.42
1900.00,0.41
1899.00,0.40
1898.00,0.39
1897.00,0.38
1896.00,0.37
1895.00,0.36
1894.00,0.36
1893.00,0.35
1892.00,0.34
1891.00,0.33
1890.00,0.32
1889.00,0.31
1888.00,0.30
1887.00,0.30
1886.00,0.29
1885.00,0.28
1884.00,0.28
1883.00,0.27
1882.00,0.26
1881.00,0.26
1880.00,0.25
1879.00,0.24
1878.00,0.24
1877.00,0.23
1876.00,0.22
1875.00,0.22
1874.00,0.21
1873.00,0.21
1872.00,0.20
1871.00,0.20
1870.00,0.19
1869.00,0.19
1868.00,0.18
1867.00,0.18
1866.00,0.17
1865.00,0.17
1864.00,0.17
1863.00,0.16
1862.00,0.16
1861.00,0.15
1860.00,0.15
1859.00,0.14
1858.00,0.14
1857.00,0.14
1856.00,0.13
1855.00,0.13
1854.00,0.12
1853.00,0.12
1852.00,0.12
1851.00,0.11
1850.00,0.11
1849.00,0.11
1848.00,0.11
1847.00,0.11
1846.00,0.10
1845.00,0.10
1844.00,0.10
1843.00,0.09
1842.00,0.09
1841.00,0.09
1840.00,0.08
1839.00,0.08
1838.00,0.08
1837.00,0.08
1836.00,0.08
1835.00,0.07
1834.00,0.07
1833.00,0.07
1832.00,0.07
1831.00,0.07
1830.00,0.07
1829.00,0.06
1828.00,0.06
1827.00,0.06
1826.00,0.06
1825.00,0.06
1824.00,0.06
1823.00,0.05
1822.00,0.05
1821.00,0.05
1820.00,0.05
1819.00,0.05
1818.00,0.05
1817.00,0.05
1816.00,0.05
1815.00,0.04
1814.00,0.04
1813.00,0.04
1812.00,0.04
1811.00,0.04
1810.00,0.04
1809.00,0.04
1808.00,0.04
1807.00,0.04
1806.00,0.04
1805.00,0.03
1804.00,0.03
1803.00,0.03
1802.00,0.03
1801.00,0.03
1800.00,0.03
1799.00,0.03
1798.00,0.03
1797.00,0.03
1796.00,0.03
1795.00,0.03
1794.00,0.03
1793.00,0.03
1792.00,0.03
1791.00,0.03
1790.00,0.03
1789.00,0.03
1788.00,0.03
1787.00,0.02
1786.00,0.02
1785.00,0.02
1784.00,0.02
1783.00,0.02
1782.00,0.02
1781.00,0.02
1780.00,0.02
1779.00,0.02
1778.00,0.02
1777.00,0.02
1776.00,0.02
1775.00,0.02
1774.00,0.02
1773.00,0.02
1772.00,0.02
1771.00,0.02
1770.00,0.02
1769.00,0.02
1768.00,0.02
1767.00,0.02
1766.00,0.02
1765.00,0.02
1764.00,0.02
1763.00,0.02
1762.00,0.02
1761.00,0.02
1760.00,0.02
1759.00,0.02
1758.00,0.02
1757.00,0.02
1756.00,0.02
1755.00,0.02
1754.00,0.02
1753.00,0.02
1752.00,0.02
1751.00,0.02
1750.00,0.02
1749.00,0.02
1748.00,0.02
1747.00,0.02
1746.00,0.02
1745.00,0.02
1744.00,0.02
1743.00,0.02
1742.00,0.02
1741.00,0.02
1740.00,0.02
1739.00,0.02
1738.00,0.03
1737.00,0.03
1736.00,0.03
1735.00,0.03
1734.00,0.03
1733.00,0.03
1732.00,0.03
1731.00,0.03
1730.00,0.03
1729.00,0.03
1728.00,0.03
1727.00,0.03
1726.00,0.03
1725.00,0.03
1724.00,0.03
1723.00,0.03
1722.00,0.03
1721.00,0.04
1720.00,0.04
1719.00,0.04
1718.00,0.04
1717.00,0.04
1716.00,0.04
1715.00,0.04
1714.00,0.04
1713.00,0.04
1712.00,0.04
1711.00,0.04
1710.00,0.04
1709.00,0.04
1708.00,0.04
1707.00,0.04
1706.00,0.04
1705.00,0.04
1704.00,0.04
1703.00,0.04
1702.00,0.04
1701.00,0.04
1700.00,0.05
1699.00,0.05
1698.00,0.05
1697.00,0.05
1696.00,0.05
1695.00,0.05
1694.00,0.05
1693.00,0.05
1692.00,0.05
1691.00,0.05
1690.00,0.05
1689.00,0.05
1688.00,0.05
1687.00,0.05
1686.00,0.05
1685.00,0.05
1684.00,0.05
1683.00,0.05
1682.00,0.05
1681.00,0.05
1680.00,0.05
1679.00,0.05
1678.00,0.05
1677.00,0.05
1676.00,0.05
1675.00,0.05
1674.00,0.05
1673.00,0.04
1672.00,0.04
1671.00,0.04
1670.00,0.04
1669.00,0.04
1668.00,0.04
1667.00,0.04
1666.00,0.04
1665.00,0.04
1664.00,0.04
1663.00,0.04
1662.00,0.04
1661.00,0.04
1660.00,0.04
1659.00,0.04
1658.00,0.04
1657.00,0.04
1656.00,0.04
1655.00,0.04
1654.00,0.04
1653.00,0.04
1652.00,0.04
1651.00,0.03
1650.00,0.03
1649.00,0.03
1648.00,0.03
1647.00,0.03
1646.00,0.03
1645.00,0.03
1644.00,0.03
1643.00,0.03
1642.00,0.03
1641.00,0.03
1640.00,0.03
1639.00,0.03
1638.00,0.03
1637.00,0.03
1636.00,0.02
1635.00,0.03
1634.00,0.03
1633.00,0.02
1632.00,0.02
1631.00,0.02
1630.00,0.02
1629.00,0.02
1628.00,0.02
1627.00,0.02
1626.00,0.02
1625.00,0.02
1624.00,0.02
1623.00,0.02
1622.00,0.02
1621.00,0.02
1620.00,0.02
1619.00,0.02
1618.00,0.02
1617.00,0.02
1616.00,0.02
1615.00,0.02
1614.00,0.02
1613.00,0.02
1612.00,0.02
1611.00,0.02
1610.00,0.02
1609.00,0.02
1608.00,0.02
1607.00,0.02
1606.00,0.02
1605.00,0.02
1604.00,0.02
1603.00,0.01
1602.00,0.01
1601.00,0.01
1600.00,0.02
1599.00,0.02
1598.00,0.02
1597.00,0.02
1596.00,0.02
1595.00,0.02
1594.00,0.02
1593.00,0.02
1592.00,0.02
1591.00,0.02
1590.00,0.02
1589.00,0.02
1588.00,0.02
1587.00,0.02
1586.00,0.02
1585.00,0.02
1584.00,0.02
1583.00,0.02
1582.00,0.02
1581.00,0.02
1580.00,0.02
1579.00,0.02
1578.00,0.02
1577.00,0.02
1576.00,0.02
1575.00,0.02
1574.00,0.02
1573.00,0.02
1572.00,0.02
1571.00,0.03
1570.00,0.03
1569.00,0.03
1568.00,0.03
1567.00,0.03
1566.00,0.03
1565.00,0.03
1564.00,0.03
1563.00,0.03
1562.00,0.03
1561.00,0.03
1560.00,0.03
1559.00,0.03
1558.00,0.03
1557.00,0.04
1556.00,0.04
1555.00,0.04
1554.00,0.04
1553.00,0.04
1552.00,0.04
1551.00,0.04
1550.00,0.04
1549.00,0.04
1548.00,0.04
1547.00,0.04
1546.00,0.04
1545.00,0.04
1544.00,0.05
1543.00,0.05
1542.00,0.04
1541.00,0.04
1540.00,0.04
1539.00,0.05
1538.00,0.05
1537.00,0.05
1536.00,0.05
1535.00,0.05
1534.00,0.05
1533.00,0.05
1532.00,0.05
1531.00,0.05
1530.00,0.05
1529.00,0.05
1528.00,0.05
1527.00,0.05
1526.00,0.05
1525.00,0.05
1524.00,0.05
1523.00,0.05
1522.00,0.05
1521.00,0.05
1520.00,0.05
1519.00,0.05
1518.00,0.05
1517.00,0.05
1516.00,0.05
1515.00,0.05
1514.00,0.05
1513.00,0.05
1512.00,0.05
1511.00,0.05
1510.00,0.05
1509.00,0.05
1508.00,0.05
1507.00,0.05
1506.00,0.05
1505.00,0.05
1504.00,0.05
1503.00,0.05
1502.00,0.04
1501.00,0.04
1500.00,0.04
